reading_id,reading_time,wire_id,result_classification,heart_rate,heart_rate_alert,firmware_version,device_app_version,hardware_version,waveform_samples
595f0710-6dde-11ec-8080-808080808080,Wed Jan 05 04:17:09 UTC 2022,618965d21b39,NSR,67,NONE,20001.149.11,2.8.0,Charge 5,[-28873  -30010  -30751  -31058  -31097  -30831  -30003  -28557  -26857  -25419  -24436  -23300  -20740  -15884  -9073  -1670  4621  8674  10558  11122  10994  9998  7600  3910  -129  -3567  -6179  -8364  -10339  -11812  -12460  -12161  -10914  -9136  -7582  -6543  -5735  -4940  -4196  -3604  -3218  -2961  -2696  -2370  -1850  -776  1147  3836  6831  9689  12461  15674  19949  25645  32526  32767  32767  32767  32767  32767  32767  32767  32767  32767  32767  32767  32027  26519  22577  19601  17351  15856  14970  14377  13911  13558  13297  13104  12975  12957  13097  13343  13611  13902  14305  14982  16153  18067  20853  24128  26964  28684  29393  29584  29639  29706  29698  29297  28227  26675  25207  24207  23619  23200  22848  22628  22569  22598  22635  22618  22485  22235  21944  21613  21078  20256  19271  18073  16376  14222  11989  9859  7879  6142  4505  2651  535  -1513  -3109  -4135  -4741  -5203  -5864  -6934  -8225  -9313  -9989  -10361  -10560  -10644  -10721  -10948  -11373  -11884  -12320  -12590  -12725  -12754  -12492  -11670  -10396  -9223  -8574  -8545  -9284  -10960  -13259  -15397  -16752  -17257  -17204  -16870  -16427  -16037  -15795  -15587  -15181  -14516  -13784  -13227  -12960  -12886  -12660  -11907  -10669  -9446  -8634  -8199  -7949  -7776  -7610  -7388  -7017  -6329  -5235  -3824  -2261  -758  453  1260  1768  2131  2377  2506  2589  2701  2903  3231  3612  3898  4061  4245  4590  5061  5488  5744  5831  5782  5555  5094  4490  3972  3724  3728  3836  3919  3946  3939  3919  3893  3867  3822  3686  3375  2930  2520  2253  2114  2062  2059  2049  1957  1715  1300  801  396  180  70  -50  -222  -455  -757  -1093  -1370  -1513  -1542  -1519  -1481  -1434  -1375  -1309  -1250  -1240  -1367  -1667  -1986  -2139  -2128  -2035  -1916  -1817  -1736  -1607  -1408  -1215  -1138  -1210  -1340  -1411  -1396  -1353  -1328  -1325  -1338  -1362  -1369  -1288  -1054  -734  -504  -484  -655  -897  -1067  -1121  -1110  -1091  -1089  -1109  -1133  -1072  -788  -267  278  613  710  683  628  572  511  449  392  351  332  299  223  143  80  -10  -151  -305  -426  -492  -512  -507  -478  -406  -284  -130  6  92  182  404  811  1263  1562  1644  1601  1544  1518  1493  1412  1224  952  704  568  528  524  524  530  560  645  826  1101  1359  1444  1301  1046  853  788  804  854  914  947  882  665  366  144  65  74  112  163  214  257  353  616  1046  1468  1727  1832  1862  1825  1667  1414  1331  1847  3194  5212  7414  9065  9450  8348  6138  3491  1179  -194  -595  -391  62  534  878  1049  1091  1085  1076  1071  1062  1041  1007  964  900  796  673  605  632  714  785  821  825  774  600  253  -194  -537  -608  -376  39  422  623  659  607  502  374  279  267  372  598  914  1283  1657  1956  2137  2214  2219  2189  2147  2090  2024  1968  1935  1939  2000  2106  2186  2159  2053  1969  1915  1830  1724  1628  1499  1290  1056  902  856  861  845  752  566  297  -41  -406  -699  -858  -905  -893  -855  -812  -787  -785  -788  -798  -844  -943  -1058  -1136  -1161  -1160  -1156  -1157  -1160  -1158  -1150  -1154  -1207  -1326  -1470  -1565  -1570  -1495  -1388  -1311  -1316  -1422  -1596  -1766  -1884  -1946  -1936  -1812  -1575  -1364  -1365  -1567  -1770  -1854  -1856  -1841  -1824  -1791  -1750  -1730  -1724  -1703  -1677  -1686  -1725  -1761  -1779  -1790  -1824  -1899  -1978  -1994  -1934  -1857  -1813  -1812  -1833  -1849  -1864  -1919  -2061  -2259  -2417  -2483  -2485  -2471  -2464  -2463  -2463  -2461  -2458  -2454  -2451  -2464  -2506  -2568  -2629  -2671  -2678  -2634  -2558  -2483  -2432  -2418  -2444  -2508  -2614  -2758  -2920  -3065  -3157  -3203  -3259  -3344  -3403  -3333  -3071  -2706  -2434  -2335  -2350  -2431  -2581  -2798  -3046  -3256  -3372  -3400  -3391  -3378  -3361  -3334  -3311  -3310  -3323  -3329  -3321  -3314  -3345  -3458  -3659  -3913  -4149  -4290  -4315  -4264  -4188  -4120  -4069  -4036  -4036  -4074  -4141  -4209  -4254  -4271  -4273  -4260  -4221  -4150  -4067  -3996  -3940  -3867  -3741  -3523  -3183  -2743  -2223  -1594  -902  -213  644  1998  4014  6597  9331  11388  11925  10749  8384  5690  3601  2699  2802  3318  3825  4120  4191  4143  3999  3741  3461  3291  3276  3386  3548  3653  3576  3250  2792  2425  2251  2228  2270  2278  2214  2111  2003  1923  1882  1849  1795  1710  1589  1445  1309  1214  1169  1154  1132  1080  1008  947  911  908  953  1087  1389  1964  2767  3521  3971  4114  4100  4062  4067  4139  4299  4527  4725  4815  4821  4791  4745  4679  4586  4430  4157  3817  3545  3376  3243  3103  2900  2558  2132  1816  1702  1712  1756  1800  1806  1678  1334  867  504  358  357  389  402  391  356  269  93  -132  -294  -351  -357  -368  -401  -446  -490  -513  -469  -301  -28  226  365  395  378  345  289  200  100  25  0  17  51  101  183  281  348  357  320  263  204  142  82  42  -5  -117  -303  -508  -673  -770  -807  -810  -803  -795  -790  -803  -855  -946  -1064  -1185  -1245  -1204  -1114  -1051  -1037  -1044  -1024  -952  -867  -837  -888  -983  -1066  -1142  -1257  -1411  -1538  -1589  -1565  -1508  -1462  -1432  -1396  -1352  -1307  -1260  -1221  -1235  -1337  -1488  -1605  -1654  -1656  -1605  -1471  -1286  -1156  -1151  -1242  -1360  -1448  -1485  -1489  -1493  -1506  -1524  -1537  -1554  -1583  -1626  -1691  -1793  -1906  -1974  -1995  -2030  -2121  -2237  -2297  -2259  -2170  -2089  -2031  -1998  -1992  -2002  -2017  -2037  -2062  -2073  -1999  -1771  -1453  -1224  -1187  -1290  -1420  -1525  -1629  -1717  -1731  -1708  -1842  -2213  -2470  -2080  -797  1296  3864  6220  7593  7604  6368  4279  1878  -172  -1347  -1580  -1141  -387  290  648  769  876  1037  1164  1214  1261  1395  1605  1792  1885  1909  1897  1830  1669  1427  1188  1037  993  1017  1063  1107  1150  1191  1227  1257  1273  1277  1282  1307  1356  1421  1482  1520  1541  1564  1591  1616  1670  1799  1977  2108  2127  2028  1860  1703  1622  1635  1752  1969  2217  2384  2421  2340  2180  2012  1908  1883  1899  1922  1934  1901  1773  1552  1315  1111  897  623  343  160  87  26  -121  -385  -703  -972  -1158  -1308  -1445  -1552  -1624  -1663  -1665  -1641  -1605  -1540  -1418  -1260  -1115  -1014  -964  -952  -957  -971  -1008  -1105  -1289  -1513  -1683  -1752  -1728  -1627  -1476  -1324  -1211  -1154  -1142  -1149  -1159  -1171  -1187  -1196  -1161  -1041  -857  -682  -580  -560  -593  -648  -741  -910  -1124  -1287  -1341  -1293  -1167  -1005  -841  -734  -791  -997  -1187  -1262  -1271  -1288  -1327  -1360  -1372  -1373  -1379  -1385  -1363  -1281  -1141  -992  -900  -899  -956  -1027  -1098  -1154  -1178  -1185  -1175  -1135  -1061  -978  -920  -898  -899  -926  -987  -1062  -1109  -1114  -1077  -992  -876  -770  -705  -687  -702  -752  -863  -1024  -1187  -1320  -1407  -1445  -1433  -1388  -1339  -1308  -1290  -1272  -1253  -1244  -1268  -1325  -1387  -1447  -1534  -1652  -1777  -1887  -1957  -1972  -1936  -1877  -1873  -1957  -2044  -2061  -2044  -2034  -2027  -1999  -1922  -1783  -1624  -1504  -1440  -1418  -1476  -1695  -2037  -2302  -2290  -1815  -619  1385  3865  6093  7172  6559  4534  1871  -702  -2534  -3238  -3023  -2360  -1551  -889  -612  -660  -838  -1042  -1219  -1323  -1307  -1093  -662  -165  176  308  393  645  1146  1788  2369  2763  2993  3144  3263  3378  3534  3750  3994  4210  4346  4381  4333  4267  4245  4261  4278  4291  4307  4311  4283  4220  4148  4058  3918  3755  3645  3601  3595  3618  3696  3831  3970  4048  4042  3959  3842  3742  3672  3588  3461  3317  3209  3145  3028  2738  2332  2005  1853  1797  1713  1535  1264  939  654  493  424  315  63  -313  -692  -953  -1054  -1038  -992  -972  -982  -1013  -1083  -1223  -1432  -1643  -1741  -1656  -1436  -1182  -963  -810  -748  -797  -968  -1243  -1535  -1727  -1791  -1789  -1781  -1773  -1740  -1644  -1474  -1278  -1131  -1055  -1027  -1019  -1017  -1012  -1006  -1025  -1104  -1242  -1386  -1481  -1519  -1528  -1522  -1488  -1400  -1246  -1062  -930  -897  -925  -958  -983  -1005  -1020  -1017  -991  -951  -919  -920  -978  -1094  -1215  -1267  -1227  -1147  -1105  -1123  -1152  -1141  -1091  -1019  -938  -886  -916  -1055  -1255  -1394  -1364  -1140  -830  -605  -531  -545  -582  -622  -665  -703  -729  -748  -776  -809  -827  -826  -820  -823  -853  -916  -1000  -1076  -1139  -1206  -1273  -1308  -1279  -1187  -1074  -1024  -1067  -1120  -1104  -1066  -1124  -1302  -1487  -1556  -1516  -1453  -1421  -1421  -1444  -1484  -1489  -1376  -1161  -985  -919  -882  -811  -765  -847  -1063  -1284  -1429  -1556  -1587  -1202  -172  1460  3438  5401  6898  7353  6432  4427  1921  -517  -2266  -2935  -2645  -1792  -850  -203  43  -7  -229  -496  -684  -751  -721  -594  -374  -148  -48  -120  -287  -424  -465  -420  -318  -205  -131  -103  -89  -73  -83  -132  -156  -65  153  404  555  567  514  476  465  463  462  466  479  485  487  555  805  1257  1743  2067  2205  2252  2272  2279  2284  2289  2297  2320  2368  2416  2410  2336  2244  2203  2228  2255  2217  2125  2038  1972  1851  1588  1238  972  852  798  732  647  565  510  500  537  600  655  665  620  564  537  541  558  572  574  586  668  847  1026  1080  1034  996  1007  1022  933  657  277  2  -59  39  185  295  358  403  439  462  461  406  268  71  -100  -188  -210  -204  -166  -67  72  169  148  7  -178  -312  -358  -331  -239  -100  32  111  97  -55  -346  -654  -815  -789  -677  -605  -625  -705  -787  -839  -855  -832  -775  -697  -625  -584  -584  -626  -695  -759  -762  -660  -486  -349  -349  -526  -840  -1150  -1329  -1373  -1339  -1254  -1131  -1018  -956  -932  -899  -836  -732  -567  -373  -244  -245  -361  -509  -615  -695  -801  -936  -1058  -1137  -1188  -1253  -1354  -1465  -1537  -1529  -1437  -1308  -1217  -1213  -1294  -1416  -1530  -1619  -1665  -1656  -1619  -1605  -1642  -1718  -1802  -1863  -1898  -1911  -1879  -1758  -1546  -1304  -1123  -1052  -1039  -993  -903  -813  -745  -683  -626  -585  -552  -508  -444  -315  -96  77  84  108  513  1552  3202  5108  6713  7419  6828  5139  2990  969  -537  -1346  -1492  -1232  -881  -545  -231  -27  32  18  2  7  23  40  71  131  220  324  433  534  613  664  683  662  599  505  410  350  321  280  200  110  106  255  489  694  822  882  902  926  978  1087  1290  1547  1731  1754  1630  1448  1323  1343  1528  1796  2010  2109  2128  2122  2127  2171  2252  2337  2397  2430  2454  2477  2480  2444  2359  2175  1814  1342  971  794  710  621  509  367  198  24  -146  -316  -440  -452  -377  -317  -335  -404  -473  -540  -628  -717  -771  -785  -783  -782  -780  -777  -775  -775  -780  -786  -777  -717  -587  -429  -308  -244  -219  -221  -263  -374  -555  -761  -926  -995  -953  -838  -680  -508  -371  -297  -279  -285  -270  -224  -195  -248  -399  -586  -713  -718  -577  -322  -61  89  86  -70  -330  -578  -723  -769  -758  -696  -572  -420  -316  -282  -271  -239  -201  -208  -288  -429  -613  -812  -971  -1043  -1016  -895  -719  -544  -405  -329  -340  -406  -465  -489  -468  -381  -213  -11  128  156  92  -10  -95  -132  -132  -123  -131  -169  -224  -266  -281  -268  -237  -201  -165  -127  -113  -164  -298  -509  -756  -960  -1074  -1127  -1166  -1195  -1207  -1207  -1199  -1180  -1162  -1173  -1185  -1108  -924  -744  -669  -699  -772  -833  -873  -903  -925  -933  -930  -924  -916  -903  -883  -880  -915  -1000  -1184  -1491  -1823  -1969  -1691  -843  605  2575  4726  6451  7095  6279  4233  1683  -632  -2163  -2663  -2338  -1664  -1027  -625  -484  -476  -438  -291  -83  75  133  104  7  -127  -247  -328  -396  -461  -506  -523  -536  -558  -567  -523  -434  -342  -260  -178  -88  26  156  266  365  497  649  754  782  767  756  757  759  767  810  890  988  1129  1388  1815  2313  2680  2811  2770  2665  2557  2457  2367  2308  2287  2286  2293  2322  2388  2473  2532  2509  2365  2123  1866  1633  1379  1080  788  533  280  33  -144  -231  -280  -346  -489  -742  -970  -947  -675  -416  -382  -589  -894  -1113  -1175  -1129  -1044  -968  -930  -927  -945  -959  -938  -854  -716  -562  -416  -302  -278  -395  -616  -841  -1000  -1079  -1071  -974  -844  -785  -853  -991  -1102  -1135  -1062  -860  -588  -383  -312  -363  -514  -714  -884  -970  -949  -851  -772  -779  -843  -900  -910  -870  -796  -700  -603  -536  -513  -520  -533  -537  -531  -539  -589  -673  -759  -840  -930  -1016  -1060  -1040  -952  -810  -662  -577  -582  -635  -685  -699  -621  -399  -98  122  178  104  -23  -149  -248  -314  -340  -338  -363  -472  -667  -887  -1078  -1211  -1280  -1300  -1302  -1310  -1323  -1335  -1375  -1506  -1742  -1995  -2167  -2231  -2173  -1943  -1556  -1171  -965  -1011  -1288  -1654  -1913  -1995  -1980  -1954  -1948  -1962  -1984  -2001  -2007  -2002  -1978  -1902  -1755  -1614  -1609  -1748  -1911  -2013  -2039  -2004  -1948  -1891  -1816  -1734  -1698  -1770  -1981  -2224  -2230  -1751  -671  1023  3177  5342  6829  7034  5872  3811  1437  -724  -2154  -2568  -2060  -1006  -50  301  162  -64  -205  -274  -274  -198  -97  -34  3  142  535  1156  1755  2147  2410  2661  2889  3063  3191  3270  3288  3236  3093  2852  2560  2321  2230  2289  2412  2506  2560  2614  2666  2667  2602  2516  2456  2450  2497  2584  2698  2810  2897  2969  3044  3116  3167  3202  3245  3308  3382  3458  3530  3588  3631  3658  3663  3633  3561  3471  3371  3170  2786  2331  2026  1915  1861  1745  1550  1307  1050  796  548  291  -2  -319  -590  -772  -883  -910  -806  -582  -330  -155  -88  -84  -92  -111  -178  -296  -406  -439  -391  -317  -274  -285  -354  -481  -640  -772  -837  -848  -834  -800  -740  -671  -644  -708  -862  -1053  -1216  -1314  -1342  -1282  -1115  -893  -727  -661  -657  -683  -741  -822  -898  -950  -991  -1062  -1196  -1364  -1472  -1477  -1438  -1414  -1398  -1357  -1277  -1180  -1112  -1088  -1097  -1119  -1140  -1151  -1158  -1182  -1227  -1248  -1201  -1112  -1042  -987  -879  -689  -486  -379  -414  -551  -710  -828  -884  -873  -780  -606  -393  -205  -91  -82  -228  -550  -946  -1247  -1385  -1413  -1409  -1418  -1443  -1449  -1397  -1272  -1127  -1047  -1064  -1120  -1169  -1241  -1365  -1511  -1617  -1659  -1645  -1576  -1445  -1287  -1181  -1185  -1300  -1461  -1576  -1611  -1591  -1555  -1553  -1690  -2093  -2734  -3331  -3544  -3285  -2726  -2068  -1361  -422  956  2644  4197  5021  4627  3089  984  -1037  -2408  -2880  -2757  -2506  -2251  -1947  -1688  -1574  -1567  -1587  -1596  -1595  -1603  -1633  -1681  -1719  -1709  -1623  -1461  -1240  -985  -745  -581  -498  -450  -385  -276  -89  188  469  638  709  804  995  1243  1474  1635  1709  1715  1697  1694  1716  1778  1910  2092  2240  2311  2333  2335  2329  2337  2377  2434  2490  2616  2916  3325  3629  3727  3686  3595  3514  3487  3525  3592  3615  3541  3376  3159  2924  2684  2454  2274  2172  2076  1822  1318  678  120  -235  -408  -479  -509  -493  -409  -283  -183  -141  -144  -180  -252  -341  -409  -459  -535  -667  -840  -1006  -1107  -1136  -1126  -1099  -1024  -857  -639  -480  -421  -414  -420  -473  -624  -845  -1040  -1147  -1152  -1041  -775  -361  59  307  351  311  295  329  399  479  536  560  564  562  555  554  582  669  832  1035  1197  1276  1305  1322  1306  1236  1172  1186  1248  1265  1201  1071  888  691  567  608  842  1170  1405  1443  1307  1095  925  854  861  894  899  805  556  161  -310  -748  -1024  -1098  -1035  -932  -876  -897  -944  -964  -957  -948  -954  -958  -920  -806  -662  -608  -721  -927  -1084  -1134  -1132  -1158  -1258  -1403  -1510  -1537  -1510  -1445  -1324  -1175  -1126  -1343  -1829  -2283  -2359  -2054  -1614  -1183  -665  164  1491  3255  4936  5681  4972  3117  914  -832  -1620  -1605  -1450  -1600  -1919  -1917  -1335  -508  35  132  -72  -373  -603  -697  -686  -625  -551  -490  -452  -440  -447  -462  -469  -465  -441  -371  -239  -115  -116  -242  -376  -440  -451  -454  -471  -486  -471  -435  -417  -422  -380  -194  134  463  648  682  676  770  1038  1410  1725  1892  1925  1866  1753  1620  1490  1378  1302  1297  1428  1726  2086  2322  2333  2139  1856  1610  1439  1328  1288  1282  1165  802  291  -132  -397  -589  -750  -902  -1104  -1341  -1519  -1584  -1552  -1450  -1320  -1229  -1224  -1306  -1433  -1538  -1594  -1640  -1723  -1818  -1834  -1714  -1521  -1364  -1260  -1146  -994  -842  -724  -628  -538  -472  -450  -486  -590  -728  -837  -895  -930  -954  -949  -882  -741  -568  -448  -458  -624  -863  -1038  -1099  -1093  -1062  -1009  -935  -854  -784  -731  -704  -699  -709  -720  -708  -627  -449  -221  -55  -60  -316  -793  -1295  -1603  -1634  -1381  -894  -375  -56  24  -8  -52  -76  -79  -45  44  180  298  341  309  229  98  -82  -266  -397  -454  -451  -426  -433  -515  -661  -805  -889  -923  -947  -976  -988  -950  -857  -748  -681  -680  -738  -822  -880  -865  -759  -596  -419  -216  37  305  539  718  820  848  832  793  740  678  584  402  69  -406  -873  -1045  -741  -143  464  1156  2242  3887  5904  7551  7832  6336  3608  696  -1429  -2184  -1653  -660  -3  210  240  248  279  330  348  287  165  59  49  153  283  334  311  280  266  257  253  280  372  506  605  613  534  421  335  295  281  285  324  406  508  582  614  622  620  612  605  629  714  848  977  1061  1099  1110  1113  1105  1066  984  888  828  841  933  1058  1156  1207  1231  1244  1253  1260  1253  1173  965  684  472  390  391  399  319  75  -273  -589  -839  -1059  -1220  -1304  -1398  -1621  -1957  -2253  -2408  -2463  -2500  -2567  -2673  -2785  -2823  -2701  -2422  -2102  -1856  -1687  -1542  -1410  -1307  -1247  -1223  -1184  -1078  -915  -751  -573  -285  161  657  1048  1291  1418  1467  1476  1469  1433  1358  1267  1201  1134  951  566  87  -264  -396  -399  -376  -334  -216  -1  225  361  402  420  472  558  638  687  708  684  597  472  370  314  278  233  169  104  55  34  54  122  238  383  518  613  680  729  728  628  423  188  20  -102  -308  -634  -948  -1106  -1092  -998  -939  -969  -1034  -1060  -1038  -1014  -1019  -1029  -1010  -974  -951  -943  -940  -955  -1010  -1108  -1229  -1383  -1621  -1965  -2338  -2599  -2655  -2467  -2041  -1539  -1214  -1203  -1467  -1843  -2137  -2267  -2244  -2114  -1974  -1889  -1776  -1409  -461  1258  3461  5433  6399  5848  3882  1257  -1129  -2705  -3326  -3255  -2983  -2829  -2773  -2651  -2408  -2137  -1965  -1914  -1921  -1937  -1962  -2011  -2061  -2072  -2049  -2014  -1882  -1515  -959  -462  -163  53  355  736  1061  1251  1358  1455  1577  1756  1981  2197  2383  2509  2506  2377  2227  2134  2094  2082  2082  2082  2078  2085  2133  2235  2348  2416  2428  2409  2375  2334  2306  2319  2383  2479  2561  2602  2608  2605  2633  2722  2831  2849  2699  2440  2191  1950  1619  1194  812  562  394  241  113  9  -99  -214  -302  -350  -373  -391  -415  -443  -495  -645  -977  -1435  -1819  -2010  -2044  -1960  -1740  -1419  -1137  -1006  -1055  -1269  -1560  -1786  -1866  -1803  -1626  -1399  -1215  -1102  -1031  -980  -913  -775  -570  -379  -259  -176  -68  69  187  250  250  151  -71  -345  -536  -566  -432  -184  73  240  316  397  573  832  1079  1232  1275  1210  1039  801  571  399  306  292  328  368  404  451  513  589  688  812  950  1079  1167  1194  1180  1160  1160  1192  1258  1341  1400  1407  1365  1297  1207  1056  812  543  352  244  151  45  -32  -39  0  17  -40  -164  -285  -351  -359  -339  -316  -332  -462  -763  -1149  -1419  -1451  -1280  -1039  -871  -824  -850  -894  -948  -1027  -1119  -1183  -1214  -1254  -1337  -1466  -1603  -1684  -1690  -1725  -1950  -2383  -2744  -2582  -1589  190  2411  4570  6045  6264  5138  3054  506  -1872  -3379  -3765  -3282  -2398  -1701  -1506  -1599  -1674  -1688  -1693  -1683  -1640  -1578  -1533  -1519  -1522  -1532  -1541  -1532  -1475  -1357  -1224  -1139  -1109  -1088  -1036  -936  -785  -595  -426  -362  -405  -448  -405  -320  -273  -275  -276  -196  8  268  457  544  610  752  980  1218  1383  1451  1488  1586  1772  1968  2088  2121  2112  2099  2094  2102  2118  2139  2175  2233  2275  2242  2090  1811  1465  1153  891  622  328  42  -211  -413  -566  -713  -866  -980  -1043  -1084  -1103  -1070  -975  -834  -663  -479  -327  -278  -350  -447  -452  -388  -359  -381  -390  -347  -270  -183  -89  5  58  46  2  -41  -102  -217  -363  -473  -520  -528  -522  -515  -521  -541  -546  -508  -424  -277  -1  410  810  1039  1094  1063  984  847  678  539  461  419  374  292  176  68  0  -31  -32  20  165  364  517  556  476  302  116  30  83  202  284  293  247  147  0  -140  -227  -260  -264  -250  -231  -217  -213  -222  -231  -226  -211  -214  -260  -324  -354  -336  -321  -363  -456  -534  -540  -486  -432  -410  -403  -392  -394  -467  -655  -896  -1063  -1109  -1088  -1067  -1064  -1069  -1069  -1064  -1054  -1033  -996  -962  -988  -1081  -1150  -1153  -1144  -1108  -906  -296  946  2743  4628  5893  5945  4731  2681  369  -1576  -2631  -2675  -2057  -1317  -788  -549  -555  -635  -652  -619  -592  -585  -586  -598  -622  -643  -607  -470  -274  -122  -69  -110  -235  -406  -553  -628  -602  -431  -113  230  450  516  504  484  489  523  572  617  664  726  789  828  837  817  771  731  781  1005  1367  1703  1895  1978  2058  2193  2345  2440  2440  2358  2245  2156  2112  2106  2146  2250  2407  2570  2679  2690  2584  2364  2053  1688  1313  963  648  375  179  86  74  98  123  110  2  -231  -558  -896  -1151  -1278  -1303  -1290  -1276  -1269  -1270  -1285  -1323  -1378  -1411  -1344  -1102  -729  -398  -258  -321  -507  -728  -917  -1032  -1072  -1053  -989  -904  -827  -776  -741  -679  -583  -534  -587  -673  -706  -686  -671  -732  -885  -1052  -1153  -1186  -1191  -1160  -1043  -818  -539  -306  -186  -196  -321  -510  -679  -771  -802  -811  -822  -858  -944  -1050  -1109  -1105  -1059  -983  -900  -836  -788  -762  -763  -774  -769  -749  -749  -808  -951  -1199  -1497  -1687  -1701  -1655  -1669  -1740  -1815  -1875  -1932  -1995  -2067  -2135  -2180  -2184  -2110  -1933  -1708  -1541  -1479  -1486  -1523  -1598  -1718  -1846  -1931  -1970  -1989  -1974  -1853  -1560  -1165  -916  -1036  -1435  -1709  -1424  -362  1375  3372  5112  6183  6262  5279  3617  1779  41  -1339  -2046  -2052  -1640  -1062  -502  -138  -6  0  -21  -37  -57  -93  -146  -202  -241  -260  -258  -216  -99  110  350  517  572  562  545  561  629  725  799  829  831  806  745  665  606  577  557  571  730  1130  1667  2086  2247  2204  2067  1903  1752  1661  1669  1792  2000  2214  2358  2428  2467  2517  2580  2628  2645  2647  2645  2634  2593  2507  2392  2283  2191  2107  2025  1932  1831  1747  1666  1522  1291  1048  893  845  845  804  665  467  303  180  33  -130  -239  -271  -265  -252  -245  -240  -235  -231  -227  -218  -203  -194  -224  -330  -494  -636  -704  -705  -669  -625  -589  -566  -557  -580  -652  -756  -848  -895  -905  -899  -885  -841  -766  -719  -752  -844  -952  -1047  -1102  -1106  -1080  -1060  -1066  -1097  -1144  -1202  -1258  -1298  -1318  -1320  -1316  -1314  -1319  -1321  -1280  -1135  -877  -606  -440  -404  -464  -583  -719  -819  -867  -889  -930  -1017  -1140  -1273  -1401  -1519  -1608  -1658  -1669  -1617  -1470  -1267  -1121  -1119  -1271  -1490  -1641  -1658  -1598  -1537  -1503  -1490  -1480  -1481  -1527  -1649  -1798  -1854  -1754  -1586  -1487  -1483  -1493  -1466  -1420  -1367  -1312  -1292  -1393  -1654  -1943  -2050  -1861  -1356  -599  325  1483  2933  4461  5612  5915  5193  3712  1921  181  -1184  -1855  -1775  -1269  -706  -249  39  161  187  194  225  278  330  388  467  536  528  438  332  265  245  287  417  626  866  1089  1249  1322  1335  1326  1306  1267  1216  1176  1160  1172  1219  1308  1435  1600  1801  2010  2164  2217  2192  2152  2133  2132  2121  2094  2083  2149  2330  2593  2832  2960  2980  2949  2899  2818  2694  2570  2483  2389  2208  1962  1750  1605  1485  1349  1172  963  781  669  611  560  475  328  141  -34  -180  -311  -405  -451  -498  -576  -643  -663  -653  -642  -643  -663  -715  -794  -852  -857  -842  -829  -801  -758  -723  -692  -634  -548  -461  -392  -344  -321  -328  -365  -416  -452  -440  -367  -261  -180  -167  -241  -390  -558  -686  -769  -840  -910  -959  -973  -969  -977  -1009  -1049  -1080  -1099  -1117  -1133  -1145  -1161  -1186  -1207  -1187  -1071  -857  -639  -523  -511  -537  -556  -566  -582  -597  -588  -541  -466  -404  -401  -465  -564  -655  -702  -702  -699  -730  -799  -912  -1047  -1153  -1206  -1234  -1266  -1297  -1292  -1233  -1153  -1085  -1035  -1020  -1050  -1083  -1072  -1027  -987  -972  -972  -974  -974  -983  -1012  -1056  -1088  -1082  -1033  -962  -894  -823  -735  -655  -612  -602  -611  -629  -648  -628  -493  -235  -68  -283  -792  -1076  -652  594  2401  4289  5753  6347  5786  4154  1896  -393  -2043  -2536  -1922  -814  90  465  441  311  240  237  265  297  309  266  143  -6  -71  16  207  420  635  837  966  990  943  877  830  809  807  833  903  1000  1074  1102  1096  1070  1032  993  977  1007  1090  1214  1347  1450  1520  1577  1626  1670  1742  1840  1907  1916  1878  1816  1781  1811  1893  2002  2115  2222  2326  2380  2293  2074  1859  1751  1727  1711  1652  1523  1297  965  584  265  67  -49  -164  -334  -565  -797  -939  -939  -808  -623  -496  -527  -738  -1031  -1241  -1293  -1236  -1148  -1080  -1043  -1039  -1064  -1102  -1134  -1160  -1189  -1227  -1264  -1286  -1281  -1230  -1118  -981  -888  -866  -893  -921  -872  -664  -320  -3  134  70  -131  -400  -670  -877  -992  -1016  -968  -885  -812  -767  -736  -702  -649  -577  -507  -480  -507  -552  -582  -598  -611  -627  -647  -663  -668  -670  -686  -729  -796  -864  -896  -870  -794  -685  -565  -456  -380  -342  -337  -332  -299  -252  -214  -187  -174  -169  -124  9  203  365  443  440  335  107  -167  -350  -373  -263  -105  7  19  -86  -280  -474  -588  -618  -609  -598  -597  -601  -602  -598  -593  -593  -593  -573  -519  -452  -413  -409  -417  -410  -384  -350  -328  -345  -456  -684  -931  -1049  -986  -833  -713  -669  -676  -713  -775  -844  -892  -902  -864  -766  -650  -640  -805  -1032  -1121  -921  -252  1114  3163  5426  7141  7612  6586  4430  1879  -370  -1815  -2262  -1968  -1367  -771  -365  -183  -106  -46  -11  -11  -40  -78  -110  -143  -196  -259  -300  -312  -313  -324  -345  -356  -322  -226  -104  -17  12  11  1  -12  -31  -36  39  265  580  806  815  610  315  94  31  128  374  713  1030  1255  1401  1498  1545  1533  1465  1375  1311  1296  1314  1339  1354  1361  1370  1386  1386  1338  1246  1146  1042  897  682  442  261  174  148  102  -34  -261  -510  -740  -968  -1209  -1452  -1661  -1792  -1835  -1832  -1821  -1811  -1799  -1785  -1778  -1780  -1783  -1779  -1770  -1759  -1739  -1695  -1613  -1509  -1450  -1501  -1654  -1826  -1930  -1955  -1933  -1861  -1703  -1471  -1233  -1039  -892  -796  -763  -799  -889  -995  -1078  -1138  -1211  -1304  -1389  -1432  -1419  -1362  -1269  -1163  -1084  -1041  -976  -792  -463  -101  150  287  405  559  714  829  915  1011  1162  1352  1500  1548  1506  1390  1206  986  800  700  692  751  830  881  893  900  944  1046  1173  1263  1299  1307  1334  1409  1501  1531  1441  1259  1046  794  477  162  -38  -111  -116  -108  -111  -134  -186  -251  -295  -310  -334  -408  -520  -617  -648  -570  -352  -69  119  113  -79  -365  -610  -734  -748  -698  -627  -583  -581  -597  -610  -629  -669  -715  -748  -797  -938  -1176  -1406  -1478  -1272  -865  -645  -883  -1332  -1549  -1164  92  2136  4407  6151  6710  5796  3721  1195  -1071  -2534  -2967  -2641  -2074  -1573  -1183  -909  -763  -710  -684  -645  -597  -555  -528  -519  -538  -596  -682  -757  -792  -786  -734  -621  -455  -295  -196  -148  -104  -46  20  92  170  237  307  461  732  1013  1187  1266  1336  1456  1620  1782  1930  2061  2147  2176  2180  2183  2191  2202  2237  2347  2548  2786  2994  3147  3242  3274  3254  3221  3194  3162  3105  3026  2932  2805  2600  2329  2073  1880  1713  1524  1305  1098  950  826  595  151  -395  -775  -836  -636  -346  -150  -148  -328  -576  -751  -805  -795  -781  -786  -804  -831  -875  -943  -1012  -1034  -970  -827  -673  -582  -568  -604  -654  -695  -733  -774  -789  -753  -690  -638  -613  -613  -648  -715  -771  -774  -740  -714  -710  -718  -705  -633  -506  -389  -344  -353  -367  -367  -374  -424  -537  -693  -853  -979  -1060  -1081  -981  -697  -311  -20  87  68  -15  -136  -269  -389  -481  -558  -636  -698  -721  -678  -548  -369  -226  -165  -188  -288  -431  -555  -629  -670  -711  -777  -867  -967  -1051  -1097  -1111  -1137  -1210  -1333  -1481  -1617  -1698  -1718  -1712  -1711  -1734  -1789  -1873  -1955  -1996  -1980  -1928  -1891  -1895  -1911  -1909  -1879  -1810  -1697  -1554  -1407  -1255  -1039  -696  -301  -33  14  -115  -326  -496  -565  -604  -693  -777  -728  -379  503  2023  3985  6014  7531  7827  6602  4280  1634  -606  -1872  -2031  -1527  -904  -436  -211  -199  -281  -348  -307  -142  53  205  350  547  770  923  941  791  494  184  47  148  369  541  601  586  537  467  400  369  391  455  533  600  630  616  580  549  543  577  662  778  876  933  985  1097  1343  1744  2174  2449  2528  2492  2411  2315  2233  2187  2175  2183  2183  2147  2052  1896  1714  1552  1443  1394  1393  1406  1385  1282  1073  789  514  333  209  -1  -372  -778  -1033  -1108  -1116  -1152  -1215  -1263  -1278  -1272  -1240  -1150  -1003  -858  -780  -813  -981  -1237  -1464  -1575  -1564  -1447  -1242  -1025  -886  -838  -834  -837  -851  -885  -936  -1000  -1100  -1242  -1386  -1481  -1520  -1522  -1504  -1468  -1426  -1407  -1426  -1468  -1505  -1524  -1520  -1470  -1354  -1185  -1017  -900  -822  -713  -514  -269  -98  -67  -153  -288  -421  -524  -561  -508  -406  -291  -157  -19  72  101  84  34  -34  -97  -133  -142  -145  -161  -187  -212  -246  -315  -415  -512  -600  -675  -716  -725  -733  -749  -762  -747  -670  -508  -307  -165  -146  -243  -405  -573  -729  -896  -1075  -1204  -1207  -1105  -1005  -966  -967  -975  -981  -993  -1020  -1052  -1055  -989  -856  -714  -621  -603  -669  -799  -909  -909  -745  -352  312  1304  2760  4583  6053  6257  5005  2844  529  -1152  -1763  -1594  -1192  -761  -278  119  252  192  126  110  104  77  31  -22  -98  -219  -389  -563  -661  -592  -305  99  423  570  582  512  391  270  193  159  144  136  142  168  207  250  308  393  502  626  745  829  865  868  865  878  916  977  1071  1227  1459  1748  2061  2338  2512  2569  2563  2562  2611  2727  2885  3022  3078  2985  2691  2268  1907  1715  1642  1603  1532  1361  1051  663  311  67  -76  -161  -214  -256  -298  -327  -330  -337  -396  -512  -653  -778  -851  -871  -867  -865  -864  -860  -871  -911  -935  -886  -764  -627  -532  -491  -484  -490  -509  -548  -588  -580  -498  -381  -286  -225  -187  -167  -167  -193  -240  -299  -353  -392  -424  -466  -518  -558  -559  -511  -431  -351  -289  -223  -125  -23  36  68  126  222  305  320  253  150  82  94  188  317  414  458  467  428  286  27  -283  -545  -705  -786  -838  -874  -893  -899  -891  -871  -850  -827  -789  -719  -615  -515  -501  -622  -815  -959  -1006  -998  -990  -1000  -1023  -1041  -1048  -1049  -1052  -1056  -1049  -1012  -943  -867  -808  -764  -731  -740  -847  -1035  -1242  -1391  -1282  -623  742  2663  4605  5711  5293  3457  1000  -1171  -2422  -2654  -2323  -1943  -1717  -1618  -1527  -1325  -1019  -729  -561  -563  -737  -1001  -1220  -1317  -1297  -1168  -916  -609  -395  -335  -360  -361  -262  -59  159  304  377  422  450  462  469  478  490  500  504  498  489  481  483  509  581  713  892  1066  1194  1277  1322  1329  1314  1306  1315  1328  1328  1289  1201  1104  1110  1323  1727  2198  2581  2717  2513  2052  1563  1212  973  757  572  472  462  499  546  576  586  581  562  525  465  384  303  223  94  -127  -408  -649  -766  -759  -698  -649  -622  -592  -552  -524  -531  -572  -616  -640  -659  -687  -715  -728  -732  -737  -748  -761  -775  -786  -794  -805  -830  -844  -808  -727  -658  -630  -625  -626  -648  -718  -826  -924  -975  -983  -962  -915  -856  -818  -831  -890  -932  -872  -693  -489  -361  -325  -335  -349  -346  -320  -278  -243  -231  -242  -277  -337  -405  -447  -440  -381  -301  -243  -223  -229  -243  -260  -277  -303  -378  -546  -768  -937  -1002  -985  -917  -823  -745  -722  -758  -814  -866  -918  -950  -927  -852  -762  -699  -671  -669  -699  -782  -898  -982  -964  -818  -600  -421  -344  -349  -391  -443  -482  -473  -382  -223  -145  -320  -668  -803  -251  1228  3327  5336  6610  6732  5681  3964  2104  338  -1046  -1716  -1610  -966  -240  154  172  44  -56  -117  -174  -218  -230  -235  -246  -246  -231  -179  -46  161  357  443  403  319  260  212  143  63  9  -9  -11  -14  -5  52  190  391  565  626  616  634  691  752  827  949  1128  1318  1444  1484  1478  1462  1439  1415  1422  1494  1615  1726  1781  1783  1772  1784  1826  1863  1864  1812  1676  1463  1256  1112  1007  909  843  862  971  1096  1147  1081  886  578  222  -65  -215  -264  -285  -310  -334  -357  -393  -448  -515  -596  -691  -777  -822  -813  -757  -685  -630  -577  -478  -323  -166  -60  -22  -34  -90  -205  -367  -513  -596  -622  -614  -576  -504  -422  -369  -374  -445  -568  -693  -767  -785  -775  -766  -772  -801  -847  -895  -949  -1010  -1063  -1085  -1042  -912  -736  -603  -551  -553  -595  -683  -795  -875  -904  -913  -938  -972  -962  -871  -758  -747  -842  -903  -841  -703  -572  -488  -439  -383  -298  -214  -249  -497  -851  -1105  -1187  -1175  -1150  -1141  -1137  -1123  -1122  -1216  -1481  -1839  -2104  -2195  -2175  -2118  -2062  -2035  -2050  -2088  -2122  -2135  -2111  -2038  -1937  -1839  -1730  -1561  -1347  -1158  -1023  -913  -801  -660  -475  -267  -83  15  -35  -275  -630  -926  -1055  -1020  -861  -682  -678  -941  -1230  -996  218  2357  4845  6850  7547  6618  4558  2190  80  -1451  -2223  -2319  -2019  -1501  -844  -235  124  212  138  8  -116  -209  -261  -277  -260  -194  -63  106  247  319  352  400  481  528  454  268  73  -40  -49  4  50  66  99  206  371  518  603  658  742  876  1011  1097  1143  1199  1300  1450  1631  1835  2047  2227  2346  2415  2465  2535  2631  2678  2577  2324  2037  1850  1799  1829  1887  1947  1988  1995  1960  1885  1797  1712  1567  1248  745  220  -157  -367  -474  -516  -516  -510  -528  -572  -603  -593  -558  -530  -553  -661  -800  -879  -835  -650  -398  -213  -148  -153  -176  -208  -249  -288  -306  -301  -281  -251  -214  -200  -250  -371  -509  -593  -606  -582  -563  -582  -649  -725  -757  -717  -572  -312  -26  155  173  42  -183  -411  -561  -621  -627  -614  -589  -542  -475  -399  -317  -250  -254  -351  -477  -559  -593  -606  -599  -533  -372  -162  -9  45  37  -2  -71  -153  -226  -292  -354  -397  -415  -423  -433  -451  -500  -590  -690  -750  -759  -750  -774  -865  -991  -1085  -1122  -1128  -1122  -1089  -1026  -972  -963  -996  -1043  -1071  -1079  -1100  -1167  -1256  -1301  -1260  -1155  -1005  -771  -446  -123  90  151  87  -29  -135  -224  -320  -426  -534  -672  -894  -1180  -1409  -1490  -1415  -1023  22  1842  4094  6144  7322  7164  5712  3530  1306  -460  -1491  -1774  -1548  -1099  -646  -296  -9  265  480  587  585  510  411  326  237  100  -63  -143  -78  47  131  176  235  340  465  550  575  579  596  629  674  729  793  863  926  985  1055  1117  1135  1119  1096  1072  1046  1026  1040  1122  1266  1445  1654  1880  2066  2173  2200  2173  2127  2068  1969  1850  1807  1903  2087  2250  2332  2324  2224  2052  1878  1742  1607  1438  1233  971  645  316  69  -56  -89  -113  -210  -395  -589  -706  -734  -718  -707  -725  -774  -822  -828  -793  -743  -707  -724  -819  -962  -1099  -1178  -1153  -1018  -834  -702  -660  -672  -696  -720  -742  -745  -724  -714  -765  -884  -1013  -1091  -1111  -1106  -1098  -1065  -957  -762  -558  -450  -459  -527  -613  -726  -856  -947  -957  -892  -798  -733  -735  -806  -907  -978  -974  -894  -782  -702  -675  -685  -711  -743  -777  -811  -844  -859  -801  -612  -337  -115  -22  -15  -26  -33  -61  -141  -251  -333  -366  -376  -376  -328  -188  10  154  144  -34  -302  -533  -683  -787  -870  -924  -945  -950  -956  -970  -1001  -1058  -1126  -1177  -1197  -1190  -1147  -1063  -964  -896  -875  -882  -891  -888  -872  -847  -823  -801  -766  -718  -681  -689  -752  -833  -877  -879  -867  -856  -845  -852  -939  -1116  -1259  -1195  -824  -101  1111  2948  5126  6917  7568  6722  4707  2270  33  -1580  -2332  -2327  -1866  -1187  -534  -140  -28  -45  -80  -121  -194  -288  -363  -395  -392  -343  -237  -106  -16  11  9  9  24  46  63  56  11  -64  -141  -197  -225  -191  -19  302  643  848  893  867  852  896  1017  1201  1387  1499  1529  1538  1593  1711  1864  2015  2128  2184  2197  2204  2217  2221  2200  2169  2152  2148  2128  2053  1921  1787  1707  1666  1607  1524  1439  1360  1273  1119  803  343  -80  -319  -390  -408  -484  -624  -741  -784  -779  -769  -770  -784  -798  -825  -904  -1035  -1150  -1195  -1181  -1148  -1135  -1154  -1171  -1152  -1099  -1034  -953  -837  -682  -512  -379  -318  -312  -324  -327  -293  -206  -103  -87  -231  -473  -677  -777  -810  -827  -843  -840  -804  -749  -721  -741  -778  -796  -792  -781  -774  -775  -781  -770  -717  -642  -636  -731  -828  -833  -771  -707  -669  -654  -645  -644  -656  -664  -653  -628  -610  -607  -607  -592  -546  -426  -179  138  375  450  388  223  -6  -226  -354  -382  -362  -351  -379  -475  -659  -916  -1170  -1336  -1396  -1388  -1348  -1292  -1232  -1179  -1147  -1144  -1152  -1144  -1105  -1042  -987  -979  -1016  -1041  -981  -795  -550  -379  -340  -394  -481  -561  -614  -637  -646  -666  -701  -714  -680  -629  -593  -565  -571  -686  -882  -928  -549  313  1527  2989  4616  6061  6719  6182  4543  2275  51  -1473  -2011  -1761  -1168  -596  -209  -24  44  113  246  446  660  819  907  935  907  816  691  589  534  502  461  419  397  403  457  587  750  863  902  891  859  822  789  769  780  839  939  1036  1105  1156  1213  1284  1365  1439  1489  1513  1524  1537  1568  1652  1822  2036  2189  2238  2226  2207  2211  2262  2361  2470  2520  2431  2156  1776  1458  1295  1241  1194  1079  875  596  314  123  33  -21  -93  -203  -359  -539  -698  -823  -930  -1022  -1087  -1119  -1120  -1106  -1100  -1106  -1103  -1067  -996  -898  -796  -717  -686  -710  -779  -875  -982  -1058  -1058  -983  -885  -812  -770  -719  -627  -513  -420  -379  -398  -481  -628  -795  -910  -947  -943  -935  -930  -910  -858  -789  -742  -746  -803  -877  -928  -945  -937  -900  -823  -723  -645  -614  -620  -630  -601  -500  -334  -162  -51  -19  -38  -94  -198  -322  -406  -431  -423  -407  -398  -416  -489  -611  -729  -797  -813  -801  -784  -774  -773  -778  -782  -769  -726  -661  -607  -587  -628  -750  -914  -1033  -1069  -1054  -1032  -1021  -1025  -1031  -1016  -956  -857  -750  -668  -623  -608  -611  -632  -676  -727  -756  -754  -735  -711  -696  -717  -814  -981  -1079  -875  -147  1215  3040  4862  6149  6445  5566  3779  1658  -174  -1232  -1380  -945  -462  -217  -150  -117  -59  29  160  308  401  398  331  280  298  370  478  625  798  993  1218  1457  1688  1894  2043  2120  2184  2297  2428  2500  2485  2410  2327  2261  2186  2087  1989  1928  1919  1958  2044  2152  2229  2244  2209  2151  2114  2153  2304  2518  2670  2664  2492  2250  2076  2018  2018  2013  1986  1946  1893  1832  1777  1713  1610  1467  1309  1119  859  550  278  79  -127  -447  -842  -1171  -1371  -1482  -1565  -1656  -1762  -1879  -1988  -2058  -2079  -2063  -2021  -1970  -1935  -1927  -1932  -1932  -1909  -1859  -1803  -1769  -1767  -1786  -1816  -1855  -1900  -1934  -1949  -1965  -2004  -2058  -2101  -2112  -2075  -1967  -1778  -1576  -1485  -1585  -1836  -2109  -2293  -2345  -2270  -2105  -1928  -1824  -1833  -1946  -2101  -2211  -2234  -2178  -2081  -1984  -1905  -1825  -1745  -1694  -1672  -1658  -1642  -1628  -1616  -1605  -1601  -1633  -1732  -1881  -2020  -2108  -2133  -2080  -1940  -1720  -1469  -1286  -1247  -1316  -1396  -1434  -1437  -1427  -1415  -1379  -1300  -1187  -1077  -1009  -989  -994  -1002  -1005  -1006  -1013  -1023  -1019  -979  -907  -839  -823  -860  -897  -887  -828  -718  -545  -331  -107  129  373  581  734  854  943  989  1000  987  947  883  813  757  728  726  744  768  800  849  907  952  975  984  985  959  871  703  481  246  28  -91  47  647  1884  3769  5946  7666  8142  7139  5116  2797  775  -604  -1254  -1281  -855  -168  496  877  922  734  449  201  51  -38  -87  -65  26  128  191  216  248  308  374  433  499  566  630  717  815  882  907  908  911  933  965  985  987  994  1035  1117  1205  1271  1359  1539  1820  2110  2287  2317  2270  2224  2217  2250  2301  2350  2400  2452  2497  2529  2557  2589  2629  2686  2748  2769  2707  2543  2316  2098  1883  1629  1359  1138  999  900  769  600  455  335  171  -34  -194  -265  -279  -267  -252  -289  -445  -707  -961  -1103  -1120  -1039  -912  -817  -794  -812  -831  -828  -792  -726  -648  -596  -602  -662  -734  -813  -941  -1119  -1278  -1345  -1276  -1050  -728  -453  -328  -334  -402  -486  -566  -623  -644  -632  -599  -559  -527  -538  -613  -726  -815  -835  -765  -598  -400  -308  -403  -616  -817  -940  -991  -975  -913  -847  -800  -756  -677  -527  -340  -210  -196  -291  -432  -553  -627  -669  -674  -609  -465  -304  -209  -195  -210  -189  -117  -34  26  61  70  21  -174  -568  -1029  -1319  -1283  -917  -407  -48  -26  -317  -737  -1059  -1195  -1211  -1191  -1181  -1192  -1216  -1222  -1186  -1109  -1012  -928  -885  -891  -925  -946  -927  -869  -795  -734  -702  -697  -708  -726  -738  -708  -603  -441  -297  -235  -305  -539  -860  -1087  -1074  -803  -451  -327  -590  -1080  -1393  -1006  417  2674  5088  6938  7677  7048  5305  3043  771  -1105  -2194  -2449  -2174  -1576  -798  -160  121  137  59  -44  -185  -362  -521  -611  -639  -633  -582  -455  -274  -104  35  155  218  173  55  -2  91  281  432  487  485  481  501  535  559  563  566  622  782  1009  1191  1258  1236  1194  1172  1165  1160  1154  1155  1185  1258  1357  1451  1537  1620  1698  1793  1952  2199  2475  2660  2662  2458  2123  1807  1601  1485  1418  1384  1336  1164  785  305  -35  -156  -171  -189  -234  -306  -381  -431  -464  -534  -677  -876  -1073  -1203  -1257  -1278  -1295  -1303  -1285  -1235  -1142  -1002  -856  -761  -729  -723  -726  -772  -903  -1084  -1206  -1191  -1057  -909  -818  -743  -640  -553  -538  -611  -734  -840  -889  -880  -842  -809  -793  -792  -811  -861  -931  -982  -986  -938  -860  -786  -747  -757  -795  -806  -744  -620  -500  -434  -409  -385  -343  -284  -196  -88  3  56  74  57  -2  -89  -160  -184  -169  -143  -139  -170  -218  -257  -299  -381  -492  -580  -623  -636  -642  -674  -767  -901  -998  -975  -796  -525  -299  -192  -175  -185  -203  -252  -361  -521  -681  -778  -793  -756  -714  -685  -663  -643  -621  -596  -581  -586  -612  -643  -655  -655  -703  -854  -1063  -1197  -1185  -1093  -1034  -1081  -1194  -1217  -1093  -855  -283  909  2624  4479  5960  6453  5668  3889  1650  -489  -2038  -2726  -2576  -1913  -1208  -776  -611  -520  -358  -139  36  129  168  177  148  61  -78  -219  -295  -281  -199  -88  16  114  237  369  435  405  323  256  255  338  477  577  555  464  458  566  679  726  736  762  817  878  915  935  1017  1251  1590  1878  2026  2062  2041  2003  1991  2040  2133  2209  2237  2225  2177  2092  1997  1932  1889  1818  1713  1610  1517  1408  1249  1010  707  409  170  12  -69  -99  -108  -131  -213  -372  -566  -729  -851  -940  -985  -989  -979  -973  -969  -964  -965  -987  -1029  -1062  -1060  -1013  -947  -900  -889  -903  -927  -946  -957  -960  -963  -969  -973  -960  -913  -845  -791  -773  -782  -796  -796  -792  -832  -969  -1187  -1388  -1501  -1537  -1509  -1355  -999  -524  -156  -27  -96  -266  -441  -550  -581  -548  -464  -366  -318  -350  -423  -480  -499  -506  -524  -558  -597  -629  -648  -660  -679  -704  -722  -730  -742  -773  -813  -843  -854  -855  -852  -836  -793  -713  -595  -451  -321  -255  -287  -424  -606  -741  -800  -830  -882  -955  -982  -915  -808  -754  -773  -826  -877  -927  -984  -1038  -1072  -1084  -1063  -984  -858  -808  -975  -1264  -1288  -688  550  2178  3858  5156  5611  5093  3879  2306  670  -697  -1554  -1822  -1583  -1078  -582  -235  -50  12  14  -2  -15  0  65  161  243  287  295  268  201  119  72  76  93  98  111  152  205  256  311  385  481  566  599  589  583  624  732  892  1042  1104  1061  997  1029  1186  1403  1601  1719  1751  1760  1818  1929  2036  2110  2163  2205  2243  2276  2288  2281  2286  2336  2411  2452  2402  2240  1984  1689  1430  1255  1143  1029  868  675  502  360  169  -132  -493  -812  -1039  -1171  -1228  -1250  -1270  -1277  -1244  -1170  -1113  -1118  -1143  -1120  -1037  -936  -859  -817  -794  -778  -781  -830  -914  -984  -1017  -1029  -1024  -958  -794  -577  -404  -315  -266  -220  -201  -247  -350  -472  -566  -568  -446  -228  2  148  163  72  -57  -155  -209  -261  -334  -387  -349  -183  56  252  325  272  142  29  12  63  128  210  306  374  380  327  251  198  197  247  319  375  391  354  247  53  -194  -390  -450  -398  -317  -257  -223  -201  -175  -150  -167  -257  -385  -462  -433  -330  -271  -345  -515  -676  -770  -792  -739  -599  -419  -289  -247  -252  -258  -255  -252  -241  -190  -83  40  118  132  128  142  141  95  36  4  0]
a8064a60-6ddc-11ec-8080-808080808080,Wed Jan 05 04:05:02 UTC 2022,618965d21b39,NSR,67,NONE,20001.149.11,2.8.0,Charge 5,[-11475  -11682  -11948  -12298  -12600  -12641  -12435  -12220  -12131  -12090  -11982  -11772  -11383  -10610  -9401  -8071  -6996  -6146  -5030  -3158  -442  2958  6801  10657  14284  18089  22581  27625  32722  32767  32767  32767  32767  32767  32767  32767  32767  32767  32767  32767  32767  32767  32767  32767  32767  32528  31416  31226  31417  31221  30334  28888  27210  25704  24505  23322  21833  20074  18327  16821  15609  14498  13215  11821  10583  9518  8492  7460  6339  5067  3790  2777  2198  1991  1950  1931  1912  1898  1884  1880  1899  1929  1941  1932  1932  1949  1986  2149  2576  3179  3657  3861  3891  3870  3795  3598  3296  3023  2868  2794  2730  2610  2324  1810  1167  533  -35  -484  -749  -878  -1084  -1582  -2370  -3183  -3744  -4060  -4321  -4612  -4877  -5060  -5166  -5220  -5240  -5263  -5367  -5642  -6087  -6541  -6831  -6937  -6971  -7053  -7225  -7384  -7406  -7306  -7187  -7125  -7152  -7276  -7494  -7750  -7944  -8065  -8183  -8336  -8505  -8669  -8810  -8909  -8955  -8945  -8903  -8877  -8895  -8943  -8989  -9015  -9028  -9039  -9050  -9046  -8998  -8908  -8877  -9051  -9423  -9743  -9638  -8842  -7356  -5401  -3361  -1817  -1324  -2014  -3496  -5153  -6540  -7526  -8138  -8338  -8126  -7711  -7298  -6933  -6646  -6494  -6467  -6481  -6420  -6184  -5794  -5408  -5173  -5084  -5064  -5098  -5223  -5427  -5621  -5710  -5597  -5227  -4733  -4377  -4248  -4219  -4161  -4040  -3874  -3683  -3470  -3228  -2949  -2661  -2444  -2367  -2421  -2526  -2608  -2653  -2667  -2616  -2415  -2017  -1497  -989  -578  -295  -146  -96  -93  -93  -63  22  180  395  624  851  1095  1355  1588  1742  1799  1757  1596  1326  1034  816  666  531  414  355  352  355  290  130  -20  -45  -26  -116  -290  -428  -497  -527  -541  -545  -538  -515  -475  -426  -382  -351  -324  -289  -252  -226  -217  -230  -279  -364  -438  -426  -319  -198  -135  -140  -193  -277  -371  -456  -540  -625  -684  -707  -712  -711  -685  -604  -465  -246  101  519  834  982  1060  1173  1347  1561  1836  2218  2659  3056  3356  3544  3619  3617  3575  3509  3418  3299  3156  3000  2828  2621  2417  2306  2285  2292  2309  2321  2279  2168  1993  1766  1532  1356  1256  1199  1169  1178  1184  1137  1066  1028  1020  1004  971  941  938  962  1005  1052  1096  1133  1131  1034  802  468  147  -55  -125  -120  -101  -110  -144  -158  -134  -121  -166  -237  -272  -232  -121  5  98  176  271  371  432  400  241  17  -162  -268  -322  -321  -233  -125  -226  -608  -1025  -1285  -1337  -959  115  1810  3754  5500  6529  6416  5222  3465  1670  213  -620  -859  -929  -1121  -1313  -1312  -1090  -751  -458  -303  -240  -181  -71  85  231  313  323  274  175  36  -127  -282  -387  -428  -429  -408  -365  -312  -273  -260  -258  -248  -209  -123  2  123  198  226  234  250  287  329  369  444  600  804  966  1035  1037  1025  1030  1053  1081  1122  1196  1306  1465  1723  2068  2373  2539  2576  2501  2295  1996  1714  1501  1319  1123  906  706  568  497  461  414  320  191  65  -34  -112  -171  -204  -220  -283  -455  -682  -813  -783  -681  -608  -563  -516  -487  -500  -543  -592  -638  -692  -756  -801  -786  -688  -530  -365  -228  -140  -143  -245  -350  -345  -244  -170  -189  -250  -268  -233  -209  -240  -291  -288  -206  -109  -103  -210  -334  -387  -351  -262  -180  -137  -113  -96  -94  -103  -125  -156  -177  -197  -249  -352  -489  -621  -712  -756  -769  -774  -786  -791  -743  -598  -396  -242  -202  -246  -317  -379  -422  -441  -449  -460  -466  -423  -283  -86  51  78  52  29  -18  -146  -333  -475  -472  -283  39  341  461  305  -113  -610  -930  -964  -770  -500  -308  -270  -376  -574  -774  -889  -909  -869  -801  -723  -661  -655  -735  -870  -986  -1043  -1061  -1058  -1037  -995  -951  -936  -963  -1011  -1035  -1008  -943  -870  -815  -786  -798  -934  -1269  -1654  -1780  -1564  -1152  -561  382  1817  3586  5218  6144  5975  4770  2923  852  -962  -2091  -2387  -1948  -1154  -547  -377  -485  -614  -649  -602  -516  -411  -278  -127  -19  13  6  7  33  60  50  -4  -92  -199  -301  -369  -378  -313  -172  4  159  268  338  375  389  408  481  612  741  822  898  1033  1224  1403  1513  1546  1527  1492  1466  1456  1472  1520  1591  1658  1713  1757  1779  1760  1704  1661  1696  1797  1879  1894  1867  1824  1749  1613  1419  1184  949  793  747  741  634  345  -46  -356  -484  -463  -369  -284  -281  -370  -496  -616  -708  -760  -775  -774  -766  -737  -690  -664  -676  -684  -663  -649  -660  -676  -675  -639  -561  -452  -349  -289  -271  -265  -255  -244  -235  -225  -219  -242  -324  -455  -584  -677  -735  -776  -816  -862  -895  -903  -886  -848  -798  -762  -764  -799  -829  -830  -804  -767  -743  -738  -744  -744  -722  -675  -637  -647  -710  -806  -904  -1004  -1103  -1103  -889  -524  -213  -75  -79  -172  -338  -549  -732  -803  -744  -600  -439  -318  -239  -153  -32  109  236  320  353  322  199  -25  -316  -604  -811  -901  -877  -770  -628  -488  -357  -235  -127  -43  13  35  10  -76  -225  -390  -511  -560  -561  -540  -508  -483  -499  -583  -710  -810  -838  -802  -728  -655  -622  -625  -633  -625  -599  -542  -458  -416  -514  -808  -1117  -924  161  1956  3908  5371  5778  5027  3573  1925  338  -974  -1694  -1698  -1256  -762  -457  -343  -276  -199  -159  -175  -216  -245  -240  -195  -131  -76  -30  33  130  240  326  367  373  370  355  295  162  -22  -187  -259  -212  -67  123  281  358  364  334  284  242  288  533  976  1432  1691  1702  1537  1318  1172  1166  1289  1460  1584  1628  1622  1612  1658  1819  2062  2269  2370  2385  2339  2213  2018  1816  1657  1514  1327  1104  912  773  649  499  335  193  76  -26  -94  -120  -141  -205  -332  -501  -669  -799  -890  -962  -1020  -1043  -1013  -947  -881  -844  -834  -796  -661  -458  -311  -276  -297  -288  -217  -122  -75  -123  -273  -470  -613  -663  -679  -743  -866  -975  -973  -819  -578  -388  -318  -327  -354  -375  -396  -430  -477  -524  -555  -569  -578  -594  -619  -640  -646  -631  -598  -564  -536  -506  -473  -430  -357  -240  -110  -45  -105  -263  -427  -531  -571  -577  -562  -504  -389  -239  -92  22  85  103  103  102  76  -22  -203  -408  -562  -634  -636  -583  -491  -381  -280  -214  -195  -234  -347  -509  -646  -715  -730  -726  -722  -720  -718  -728  -769  -828  -858  -826  -756  -698  -671  -665  -683  -742  -832  -885  -858  -797  -759  -750  -744  -735  -742  -767  -762  -704  -638  -660  -833  -909  -376  973  2810  4455  5125  4513  3017  1223  -367  -1345  -1619  -1451  -1121  -803  -640  -675  -782  -843  -845  -782  -619  -371  -134  -21  -43  -116  -163  -176  -178  -183  -191  -200  -203  -181  -116  -28  27  14  -41  -61  5  115  204  275  380  544  739  912  1013  1044  1030  969  840  677  554  526  628  865  1157  1390  1532  1633  1746  1868  1954  1977  1953  1902  1828  1735  1634  1520  1391  1282  1223  1188  1136  1056  971  910  881  871  844  757  598  424  320  273  156  -125  -496  -781  -898  -906  -890  -869  -816  -719  -606  -519  -444  -335  -178  -20  63  -5  -269  -627  -888  -970  -938  -866  -783  -693  -591  -451  -255  -34  135  201  162  38  -146  -348  -505  -600  -673  -752  -806  -801  -751  -694  -656  -628  -591  -547  -508  -462  -386  -297  -274  -372  -549  -699  -771  -788  -757  -632  -385  -98  92  150  144  128  100  36  -52  -125  -170  -200  -223  -239  -246  -244  -238  -233  -240  -267  -294  -306  -324  -385  -489  -605  -713  -808  -869  -857  -737  -528  -325  -218  -208  -232  -244  -240  -239  -245  -244  -232  -219  -211  -205  -202  -223  -288  -382  -462  -496  -451  -293  -66  65  -21  -310  -654  -713  -90  1322  3236  4955  5653  4993  3333  1360  -269  -1169  -1412  -1327  -1102  -813  -519  -218  10  61  -23  -147  -261  -352  -413  -444  -465  -472  -414  -232  31  244  340  360  359  354  350  352  355  336  278  204  178  251  402  560  668  725  759  796  857  974  1165  1411  1678  1908  2058  2141  2194  2224  2223  2186  2126  2056  1981  1925  1913  1928  1951  2012  2141  2304  2411  2393  2231  1991  1783  1660  1595  1537  1399  1100  715  423  271  160  19  -149  -339  -556  -795  -1032  -1229  -1341  -1337  -1218  -1032  -867  -786  -778  -805  -844  -892  -962  -1064  -1177  -1256  -1277  -1250  -1197  -1139  -1082  -1036  -1013  -1013  -1022  -1013  -960  -854  -729  -636  -618  -705  -884  -1075  -1192  -1212  -1156  -1052  -945  -881  -856  -824  -742  -627  -579  -699  -927  -1086  -1109  -1062  -1005  -960  -912  -818  -680  -555  -485  -470  -493  -523  -541  -534  -493  -418  -342  -321  -385  -498  -592  -627  -580  -437  -242  -105  -115  -280  -514  -689  -751  -742  -719  -714  -728  -750  -777  -827  -916  -1036  -1161  -1266  -1331  -1354  -1350  -1339  -1329  -1317  -1282  -1209  -1123  -1069  -1059  -1062  -1034  -950  -819  -686  -584  -527  -529  -590  -666  -706  -712  -703  -661  -548  -392  -287  -310  -452  -638  -859  -1158  -1408  -1247  -314  1458  3675  5550  6319  5773  4363  2725  1243  37  -867  -1439  -1604  -1340  -809  -296  -15  -8  -198  -453  -623  -599  -372  -59  163  225  182  117  74  61  66  91  145  227  316  373  387  374  363  391  492  645  772  808  747  631  514  435  393  388  478  725  1056  1299  1399  1440  1488  1530  1548  1551  1562  1604  1684  1749  1721  1613  1539  1580  1721  1917  2148  2368  2517  2584  2580  2440  2091  1647  1337  1209  1077  783  381  33  -171  -260  -318  -422  -555  -653  -717  -795  -885  -928  -907  -872  -865  -885  -901  -883  -832  -768  -719  -696  -691  -682  -645  -562  -454  -378  -382  -475  -610  -710  -741  -727  -705  -706  -750  -839  -942  -985  -943  -903  -953  -1037  -1029  -894  -709  -559  -487  -477  -471  -451  -450  -480  -514  -532  -534  -531  -522  -466  -315  -109  46  103  91  37  -71  -262  -532  -799  -962  -974  -814  -500  -165  13  -13  -140  -225  -187  -25  218  464  614  610  456  228  43  -37  -46  -33  -19  -6  -4  -48  -175  -350  -486  -558  -621  -736  -894  -1032  -1088  -1061  -1000  -959  -944  -911  -810  -626  -430  -344  -407  -532  -651  -780  -907  -992  -1045  -1093  -1139  -1175  -1206  -1234  -1236  -1176  -1057  -913  -773  -655  -568  -505  -421  -279  -152  -214  -518  -865  -959  -469  874  2907  4983  6387  6608  5519  3494  1134  -973  -2255  -2416  -1690  -600  356  839  818  555  295  124  33  -12  -9  55  129  155  150  161  211  287  363  418  435  430  447  502  560  591  600  602  603  599  586  558  513  454  418  437  476  491  501  595  853  1225  1532  1664  1653  1573  1479  1418  1434  1547  1712  1840  1892  1899  1892  1859  1773  1658  1588  1611  1713  1839  1934  1973  1922  1728  1404  1051  733  450  216  36  -115  -263  -416  -563  -667  -714  -724  -710  -656  -550  -429  -348  -322  -329  -355  -409  -498  -611  -706  -754  -761  -758  -770  -801  -857  -942  -1047  -1146  -1191  -1090  -766  -319  18  119  2  -274  -593  -812  -890  -886  -853  -806  -746  -688  -641  -611  -598  -602  -632  -696  -777  -836  -854  -834  -777  -686  -587  -531  -538  -580  -615  -631  -637  -638  -617  -549  -452  -386  -386  -420  -452  -481  -512  -533  -532  -512  -490  -472  -454  -438  -427  -414  -388  -330  -237  -145  -102  -129  -195  -230  -213  -218  -313  -488  -697  -888  -1011  -1062  -1064  -994  -814  -571  -381  -298  -288  -304  -317  -336  -431  -673  -993  -1227  -1300  -1274  -1224  -1182  -1153  -1135  -1106  -997  -736  -383  -121  -61  -195  -464  -785  -1055  -1199  -1221  -1179  -1121  -1057  -953  -824  -775  -803  -773  -746  -882  -993  -619  538  2408  4543  6164  6481  5348  3393  1370  -247  -1210  -1537  -1516  -1365  -1080  -700  -394  -259  -258  -321  -396  -440  -402  -257  -59  81  125  116  118  160  228  285  311  314  306  301  318  374  451  515  547  548  526  494  474  498  602  797  1031  1233  1383  1501  1594  1655  1681  1691  1714  1758  1806  1836  1825  1737  1561  1359  1240  1314  1632  2079  2421  2549  2528  2427  2255  2039  1846  1718  1631  1535  1371  1103  784  533  413  377  316  187  49  -45  -118  -199  -293  -401  -536  -688  -826  -938  -1018  -1057  -1067  -1040  -959  -867  -823  -831  -859  -875  -873  -873  -874  -858  -822  -784  -769  -772  -743  -675  -615  -595  -599  -608  -613  -608  -585  -544  -499  -476  -482  -503  -542  -627  -748  -845  -854  -768  -643  -557  -530  -535  -543  -549  -556  -565  -572  -574  -574  -575  -579  -581  -561  -489  -357  -210  -109  -72  -103  -230  -451  -676  -811  -853  -851  -839  -815  -750  -611  -423  -254  -148  -101  -89  -91  -99  -112  -134  -159  -150  -64  90  243  328  325  272  232  230  237  197  72  -107  -263  -369  -466  -570  -633  -619  -556  -503  -472  -432  -406  -454  -588  -777  -974  -1114  -1168  -1156  -1097  -992  -859  -730  -605  -454  -286  -173  -182  -317  -505  -641  -689  -688  -677  -669  -671  -721  -850  -1012  -1087  -1014  -856  -671  -373  44  210  -195  -824  -977  -220  1466  3633  5445  6142  5505  3969  2209  635  -599  -1386  -1698  -1568  -1061  -434  -28  46  -103  -335  -536  -662  -731  -760  -736  -620  -361  37  448  702  732  569  288  18  -137  -171  -117  9  166  276  311  307  306  322  347  376  421  488  564  625  657  678  730  834  973  1118  1238  1307  1323  1298  1232  1141  1075  1118  1343  1711  2051  2237  2291  2298  2293  2258  2169  2029  1852  1636  1393  1191  1084  1038  977  855  677  491  334  184  21  -115  -201  -300  -496  -759  -951  -979  -863  -694  -577  -566  -646  -760  -846  -885  -893  -881  -858  -845  -877  -973  -1101  -1190  -1176  -1043  -837  -638  -484  -367  -289  -262  -282  -343  -455  -591  -688  -714  -693  -657  -616  -558  -486  -421  -375  -337  -299  -272  -289  -360  -451  -516  -541  -538  -513  -448  -327  -191  -130  -191  -319  -418  -455  -456  -452  -456  -467  -479  -473  -420  -301  -139  7  100  154  193  221  229  209  148  36  -119  -285  -426  -534  -617  -674  -690  -665  -602  -489  -323  -157  -59  -48  -110  -234  -379  -491  -587  -721  -837  -806  -649  -548  -605  -721  -741  -629  -459  -294  -162  -101  -134  -250  -416  -589  -714  -771  -784  -776  -740  -668  -587  -534  -523  -572  -719  -944  -1094  -936  -277  907  2368  3746  4786  5272  5073  4191  2654  727  -968  -1916  -2042  -1579  -904  -396  -193  -177  -223  -283  -321  -306  -226  -76  134  340  463  476  378  187  -27  -172  -208  -171  -92  47  257  474  625  691  668  535  341  196  177  270  411  568  740  899  994  1024  1036  1056  1086  1122  1150  1162  1195  1333  1609  1919  2112  2138  2049  1925  1834  1794  1781  1773  1763  1747  1719  1674  1615  1549  1482  1419  1373  1352  1347  1318  1214  980  595  138  -226  -422  -493  -507  -504  -528  -632  -840  -1079  -1242  -1290  -1245  -1127  -981  -879  -846  -851  -862  -871  -879  -883  -881  -868  -846  -800  -711  -593  -499  -479  -565  -759  -989  -1148  -1184  -1088  -868  -589  -347  -201  -172  -249  -379  -502  -604  -706  -789  -816  -808  -804  -783  -725  -655  -615  -614  -628  -627  -628  -680  -774  -818  -715  -463  -182  5  92  123  99  0  -133  -228  -263  -287  -344  -424  -491  -525  -514  -456  -368  -293  -252  -235  -237  -289  -430  -647  -859  -997  -1039  -1000  -906  -784  -673  -627  -677  -795  -899  -922  -856  -735  -609  -532  -524  -570  -639  -711  -794  -892  -970  -987  -935  -850  -766  -698  -662  -658  -642  -589  -509  -393  -320  -459  -751  -842  -432  466  1631  2828  3792  4232  4030  3295  2172  824  -410  -1139  -1335  -1284  -1160  -978  -742  -457  -191  -40  0  1  -8  -46  -125  -219  -290  -332  -360  -373  -356  -307  -237  -165  -110  -62  7  96  162  185  178  163  151  147  143  121  97  131  264  458  644  798  925  1013  1056  1065  1055  1035  1020  1008  993  982  1023  1171  1421  1699  1943  2127  2243  2299  2313  2314  2317  2305  2246  2125  1968  1803  1633  1454  1228  889  477  153  10  -10  -2  -18  -66  -137  -226  -334  -436  -500  -536  -588  -665  -757  -877  -1022  -1144  -1204  -1212  -1177  -1097  -1000  -949  -977  -1039  -1045  -940  -769  -631  -572  -569  -600  -661  -733  -780  -757  -648  -493  -375  -339  -390  -518  -672  -778  -814  -817  -809  -767  -668  -559  -529  -587  -648  -636  -553  -484  -503  -585  -657  -664  -602  -525  -492  -520  -575  -575  -485  -398  -396  -443  -476  -484  -475  -428  -312  -142  8  103  160  198  212  188  91  -109  -361  -541  -601  -596  -580  -560  -532  -516  -554  -638  -711  -726  -703  -721  -813  -900  -917  -886  -856  -835  -795  -712  -615  -539  -511  -584  -751  -908  -994  -1030  -1022  -907  -628  -268  -19  -9  -238  -605  -959  -1190  -1242  -1117  -906  -738  -652  -598  -588  -769  -1180  -1568  -1558  -840  685  2767  4823  6121  6185  5121  3418  1597  86  -865  -1290  -1339  -1086  -665  -351  -273  -293  -278  -235  -196  -151  -79  14  85  104  83  57  51  58  63  63  75  117  193  270  300  275  250  264  298  314  310  311  366  513  710  867  955  1007  1041  1056  1056  1051  1044  1047  1074  1144  1265  1417  1551  1642  1696  1729  1744  1747  1750  1775  1841  1932  2015  2065  2063  1993  1882  1793  1758  1744  1674  1483  1177  830  527  291  73  -134  -273  -316  -304  -282  -280  -326  -432  -561  -652  -687  -683  -648  -569  -455  -363  -346  -395  -462  -514  -558  -607  -645  -659  -662  -662  -646  -621  -600  -579  -549  -508  -452  -392  -352  -351  -393  -463  -536  -596  -632  -634  -606  -554  -472  -364  -271  -225  -227  -266  -326  -373  -375  -316  -225  -150  -120  -152  -269  -453  -629  -731  -735  -607  -325  0  177  116  -111  -393  -669  -890  -1002  -977  -822  -605  -437  -371  -371  -379  -370  -348  -323  -287  -229  -151  -70  -14  1  -33  -127  -246  -333  -367  -361  -319  -233  -130  -61  -47  -72  -107  -133  -145  -147  -146  -150  -171  -225  -310  -400  -461  -490  -506  -521  -540  -558  -573  -601  -661  -754  -865  -983  -1086  -1137  -1089  -912  -669  -489  -414  -363  -248  -83  76  242  461  704  893  996  1048  1100  1157  1149  934  417  -284  -847  -914  -257  1145  3071  5073  6619  7247  6705  5151  3018  725  -1202  -2175  -2038  -1171  -168  412  388  54  -201  -225  -58  174  338  389  367  304  196  45  -104  -198  -230  -233  -231  -219  -180  -117  -50  14  82  145  184  196  199  210  224  238  281  394  547  659  704  720  747  787  824  846  853  856  859  859  851  838  853  947  1149  1428  1695  1872  1946  1938  1844  1686  1535  1443  1408  1388  1323  1190  1014  824  637  460  275  59  -158  -322  -398  -398  -378  -407  -543  -762  -978  -1133  -1220  -1205  -1051  -823  -646  -576  -578  -631  -741  -886  -1032  -1179  -1331  -1443  -1456  -1347  -1157  -958  -803  -719  -695  -698  -712  -746  -811  -889  -931  -914  -877  -856  -844  -813  -761  -722  -730  -783  -857  -913  -912  -858  -768  -670  -606  -592  -604  -615  -624  -641  -667  -679  -664  -641  -642  -685  -759  -836  -891  -914  -913  -894  -849  -766  -633  -465  -310  -218  -187  -193  -255  -418  -654  -849  -921  -885  -807  -745  -720  -720  -723  -718  -702  -663  -589  -498  -426  -375  -314  -264  -271  -307  -279  -175  -81  -61  -110  -182  -237  -284  -372  -534  -738  -914  -1027  -1086  -1103  -1075  -1002  -898  -791  -716  -686  -682  -684  -685  -701  -744  -803  -844  -853  -850  -866  -909  -929  -886  -812  -746  -679  -610  -586  -641  -750  -852  -910  -925  -924  -950  -1034  -1137  -1167  -1072  -900  -785  -858  -1148  -1505  -1526  -773  820  2886  4878  6271  6659  5949  4422  2467  517  -835  -1243  -950  -387  112  261  50  -215  -322  -288  -183  -56  56  147  199  176  92  20  17  72  121  117  76  37  23  42  99  172  226  261  305  355  359  291  208  209  317  464  575  633  681  778  924  1071  1175  1224  1218  1172  1111  1041  968  922  944  1060  1240  1431  1628  1817  1943  1983  1976  1962  1947  1928  1904  1875  1830  1734  1561  1349  1176  1054  887  576  140  -275  -549  -695  -795  -893  -987  -1064  -1087  -978  -709  -351  -23  188  262  205  9  -273  -513  -627  -641  -606  -538  -453  -390  -378  -403  -424  -400  -309  -166  -17  76  71  -14  -115  -185  -206  -181  -138  -103  -81  -63  -32  37  171  368  565  687  718  679  573  387  167  -2  -95  -135  -132  -97  -65  -42  4  78  106  29  -92  -161  -162  -142  -139  -165  -220  -290  -341  -339  -261  -111  70  243  389  498  550  509  353  134  -36  -108  -111  -89  -66  -48  -43  -79  -201  -423  -673  -834  -845  -732  -575  -463  -422  -430  -470  -533  -597  -655  -709  -735  -710  -658  -618  -615  -644  -684  -731  -795  -848  -872  -890  -895  -859  -802  -762  -735  -711  -703  -723  -766  -809  -844  -890  -952  -986  -948  -771  -261  739  2148  3709  5015  5510  4914  3483  1665  -141  -1496  -2079  -1993  -1542  -941  -468  -329  -352  -305  -207  -145  -125  -121  -115  -106  -97  -96  -119  -178  -259  -322  -321  -233  -58  164  354  422  368  313  356  451  502  481  440  447  520  613  695  784  908  1043  1125  1113  1025  936  948  1075  1227  1317  1329  1302  1291  1353  1527  1758  1920  1964  1952  1993  2153  2389  2562  2558  2359  2051  1766  1558  1390  1230  1093  1026  1040  1059  954  657  277  -3  -163  -323  -526  -709  -847  -954  -1030  -1073  -1069  -968  -732  -435  -226  -174  -228  -319  -425  -571  -745  -889  -988  -1066  -1120  -1106  -986  -772  -560  -443  -444  -531  -650  -748  -814  -874  -970  -1142  -1355  -1510  -1564  -1562  -1544  -1512  -1450  -1374  -1319  -1291  -1220  -1024  -740  -515  -463  -634  -1019  -1485  -1835  -1969  -1888  -1625  -1284  -1014  -850  -730  -638  -612  -660  -706  -670  -554  -398  -243  -143  -116  -127  -159  -245  -421  -648  -841  -950  -980  -957  -884  -742  -563  -436  -411  -467  -546  -599  -612  -611  -624  -655  -678  -679  -674  -679  -684  -685  -692  -716  -749  -774  -772  -741  -694  -638  -567  -484  -420  -404  -423  -442  -443  -456  -506  -576  -654  -764  -942  -1157  -1275  -1196  -1006  -851  -611  132  1651  3710  5605  6463  5821  4095  2176  639  -391  -959  -1200  -1258  -1140  -852  -534  -288  -111  -4  13  -34  -86  -65  70  278  475  584  566  429  243  112  90  157  253  323  345  323  259  172  118  197  471  847  1125  1226  1225  1192  1153  1137  1165  1220  1270  1304  1326  1328  1289  1227  1229  1373  1600  1797  1941  2050  2117  2156  2214  2307  2399  2450  2454  2429  2365  2237  2067  1915  1798  1710  1663  1629  1492  1170  755  426  235  96  -56  -195  -273  -276  -223  -148  -99  -129  -262  -451  -605  -681  -687  -643  -588  -563  -585  -637  -669  -647  -598  -549  -491  -425  -394  -440  -565  -724  -862  -945  -966  -903  -736  -518  -364  -339  -421  -547  -658  -726  -748  -730  -702  -693  -705  -725  -736  -744  -770  -827  -892  -946  -975  -948  -859  -755  -679  -626  -586  -568  -573  -564  -534  -514  -515  -522  -529  -535  -543  -557  -588  -645  -701  -702  -634  -532  -443  -393  -377  -364  -338  -304  -281  -274  -278  -285  -291  -302  -338  -419  -518  -582  -596  -594  -598  -603  -593  -570  -547  -534  -523  -496  -447  -393  -358  -385  -533  -804  -1071  -1174  -1110  -1011  -963  -960  -968  -977  -988  -996  -966  -859  -682  -483  -307  -186  -171  -290  -487  -671  -813  -948  -1071  -1101  -986  -818  -736  -687  -338  665  2340  4332  6052  6800  6171  4429  2235  206  -1147  -1573  -1347  -1049  -970  -999  -956  -741  -335  115  407  480  402  247  84  -24  -75  -97  -109  -111  -109  -111  -127  -149  -128  22  331  680  894  884  675  389  185  131  190  302  411  481  521  566  638  741  892  1063  1188  1252  1304  1394  1506  1583  1600  1589  1597  1643  1702  1744  1779  1845  1951  2047  2081  2068  2050  2020  1937  1798  1647  1524  1440  1366  1248  1058  811  544  308  134  3  -118  -226  -292  -315  -328  -356  -384  -381  -353  -353  -417  -495  -521  -501  -475  -463  -458  -429  -355  -273  -255  -318  -438  -597  -765  -882  -936  -951  -894  -666  -245  206  497  588  531  353  105  -127  -317  -478  -595  -645  -637  -595  -544  -499  -470  -464  -481  -508  -520  -505  -476  -454  -449  -457  -463  -439  -366  -267  -192  -164  -181  -254  -385  -523  -607  -624  -598  -553  -503  -454  -411  -380  -364  -358  -357  -345  -306  -231  -125  -6  89  102  10  -127  -223  -255  -254  -246  -242  -265  -348  -495  -666  -820  -927  -965  -935  -870  -793  -703  -608  -527  -468  -438  -444  -468  -471  -450  -469  -609  -866  -1124  -1261  -1229  -1043  -796  -620  -567  -593  -646  -697  -735  -768  -809  -857  -889  -880  -815  -719  -666  -756  -1018  -1293  -1340  -1104  -752  -435  -18  846  2332  4134  5527  5834  4906  3175  1321  -83  -771  -849  -690  -592  -628  -708  -692  -602  -563  -576  -565  -512  -451  -409  -389  -374  -344  -284  -210  -158  -143  -145  -134  -96  -34  29  60  50  35  43  69  79  59  47  93  199  308  367  396  455  577  728  873  1023  1211  1408  1538  1576  1561  1544  1564  1639  1743  1832  1894  1949  1993  2019  2033  2042  2048  2061  2089  2127  2140  2080  1919  1660  1322  941  584  324  189  153  173  201  189  100  -72  -286  -458  -533  -542  -569  -688  -904  -1107  -1153  -1018  -799  -568  -348  -177  -101  -168  -407  -740  -996  -1085  -1045  -944  -841  -775  -755  -785  -866  -976  -1067  -1125  -1154  -1133  -1037  -880  -719  -610  -566  -558  -547  -520  -488  -466  -458  -450  -426  -381  -324  -274  -257  -302  -449  -725  -1059  -1315  -1413  -1330  -1061  -702  -432  -327  -310  -263  -149  -28  41  64  64  30  -66  -214  -359  -466  -527  -527  -471  -375  -240  -97  -43  -153  -390  -618  -738  -759  -742  -726  -713  -692  -669  -678  -760  -910  -1065  -1161  -1175  -1118  -1028  -949  -900  -876  -871  -901  -986  -1100  -1171  -1144  -1027  -885  -783  -741  -754  -831  -956  -1071  -1131  -1132  -1087  -1013  -925  -844  -815  -912  -1142  -1338  -1263  -725  404  2039  3797  5231  5956  5658  4336  2422  438  -1209  -2120  -2113  -1511  -820  -334  -151  -201  -280  -266  -209  -175  -167  -166  -164  -162  -162  -164  -163  -144  -72  76  263  400  443  420  378  341  313  293  292  292  232  59  -186  -379  -404  -180  289  812  1151  1270  1305  1355  1433  1546  1710  1877  1918  1753  1468  1244  1162  1185  1279  1457  1701  1942  2144  2327  2454  2442  2325  2232  2195  2093  1798  1360  970  735  609  503  371  225  92  -8  -81  -139  -182  -206  -220  -242  -301  -428  -604  -763  -867  -944  -1020  -1069  -1054  -975  -840  -670  -509  -389  -310  -266  -265  -334  -490  -687  -835  -904  -937  -961  -960  -926  -878  -834  -770  -633  -432  -238  -101  -26  -25  -141  -401  -712  -918  -949  -851  -719  -633  -604  -576  -492  -345  -183  -75  -80  -206  -381  -518  -567  -524  -430  -336  -266  -229  -224  -225  -205  -158  -96  -31  30  111  239  355  342  171  -96  -414  -718  -905  -955  -934  -909  -899  -891  -841  -697  -478  -263  -110  -41  -97  -322  -662  -953  -1094  -1113  -1064  -954  -799  -655  -563  -515  -481  -448  -438  -478  -556  -642  -715  -764  -792  -803  -794  -747  -653  -516  -411  -481  -767  -1085  -1183  -929  -253  885  2316  3678  4608  4743  3979  2607  1041  -275  -1033  -1296  -1294  -1175  -1011  -784  -472  -204  -120  -206  -356  -474  -524  -503  -392  -195  28  238  463  701  878  945  914  806  634  420  228  142  196  330  423  420  377  393  520  732  940  1086  1171  1219  1243  1248  1233  1209  1195  1204  1233  1259  1269  1271  1305  1441  1721  2056  2287  2364  2354  2328  2297  2237  2121  1974  1860  1813  1809  1812  1802  1749  1603  1346  996  587  199  -68  -200  -259  -310  -366  -404  -414  -406  -401  -420  -479  -555  -612  -665  -761  -893  -991  -995  -908  -784  -693  -660  -664  -682  -697  -695  -672  -644  -635  -654  -703  -791  -898  -953  -906  -773  -608  -465  -381  -363  -396  -454  -480  -441  -386  -408  -555  -777  -963  -1055  -1058  -965  -761  -514  -346  -305  -345  -406  -454  -482  -480  -433  -343  -250  -190  -168  -161  -164  -208  -328  -495  -636  -721  -776  -834  -900  -949  -950  -884  -762  -636  -551  -500  -464  -444  -437  -427  -407  -420  -562  -895  -1310  -1610  -1716  -1667  -1493  -1227  -944  -708  -538  -456  -492  -612  -745  -865  -984  -1094  -1182  -1234  -1229  -1130  -906  -611  -386  -313  -409  -680  -1066  -1417  -1569  -1334  -529  776  2231  3473  4194  4173  3502  2503  1372  166  -940  -1701  -2000  -1825  -1317  -806  -540  -505  -562  -612  -616  -588  -567  -565  -545  -497  -461  -463  -484  -492  -460  -370  -234  -96  3  53  88  156  253  337  385  396  378  346  319  323  379  479  608  772  981  1210  1418  1581  1705  1804  1893  1975  2066  2201  2357  2466  2497  2484  2463  2441  2415  2387  2366  2363  2387  2432  2463  2437  2343  2194  2033  1910  1836  1772  1666  1489  1271  1062  839  543  195  -96  -263  -322  -331  -350  -434  -591  -760  -865  -899  -905  -899  -857  -778  -714  -704  -736  -779  -814  -834  -838  -824  -788  -730  -651  -552  -458  -399  -380  -386  -405  -429  -444  -443  -420  -377  -318  -268  -280  -364  -480  -592  -684  -738  -753  -754  -762  -785  -821  -868  -905  -891  -808  -693  -601  -553  -535  -532  -536  -537  -538  -554  -594  -663  -745  -806  -831  -826  -784  -697  -594  -515  -446  -323  -137  33  104  33  -182  -469  -694  -774  -733  -651  -587  -538  -474  -410  -393  -458  -593  -745  -880  -1033  -1223  -1403  -1511  -1530  -1476  -1369  -1232  -1096  -991  -919  -859  -815  -794  -805  -892  -1056  -1212  -1283  -1265  -1200  -1127  -1053  -978  -923  -904  -921  -975  -1050  -1088  -1013  -794  -549  -555  -995  -1714  -2285  -2200  -1080  1003  3437  5398  6254  5858  4596  2985  1331  -72  -942  -1263  -1156  -786  -459  -356  -348  -287  -201  -150  -138  -158  -209  -280  -332  -323  -224  -48  149  309  387  363  241  56  -122  -220  -207  -96  49  149  171  157  177  279  453  635  768  832  841  832  837  878  968  1098  1224  1299  1311  1280  1244  1257  1355  1532  1756  1967  2107  2178  2230  2302  2383  2439  2459  2455  2412  2274  2008  1667  1375  1189  1049  888  703  500  300  150  54  -43  -156  -240  -267  -258  -243  -236  -223  -192  -167  -194  -293  -450  -617  -725  -757  -744  -725  -714  -713  -715  -717  -716  -707  -689  -645  -540  -359  -170  -88  -157  -303  -416  -458  -461  -450  -420  -372  -342  -365  -422  -476  -510  -515  -493  -441  -338  -191  -59  -3  -48  -193  -389  -552  -608  -558  -468  -422  -457  -536  -601  -634  -654  -663  -647  -601  -532  -461  -402  -334  -229  -109  -15  42  77  94  91  72  43  5  -40  -75  -91  -105  -146  -236  -360  -469  -518  -488  -392  -285  -220  -200  -201  -221  -279  -372  -459  -507  -538  -597  -683  -757  -795  -800  -767  -679  -556  -460  -421  -419  -425  -434  -457  -499  -550  -616  -721  -849  -941  -969  -958  -945  -960  -1022  -1117  -1184  -1149  -971  -707  -479  -340  -253  -177  -101  -48  -91  -296  -627  -999  -1302  -1305  -674  786  2921  5134  6546  6547  5291  3426  1518  -40  -1017  -1470  -1595  -1530  -1381  -1197  -945  -643  -393  -274  -280  -368  -484  -560  -513  -299  10  266  375  335  186  4  -125  -187  -219  -239  -236  -210  -183  -173  -174  -172  -160  -133  -79  25  174  331  455  517  526  524  559  651  796  986  1193  1360  1456  1506  1539  1564  1590  1620  1640  1644  1642  1641  1638  1635  1655  1722  1825  1918  1955  1890  1693  1416  1161  962  830  795  835  842  685  308  -174  -559  -744  -792  -807  -827  -837  -817  -758  -671  -559  -430  -323  -282  -309  -373  -434  -464  -464  -460  -498  -623  -836  -1065  -1226  -1290  -1260  -1153  -1008  -882  -779  -661  -514  -350  -169  10  124  118  -5  -177  -300  -335  -310  -262  -228  -269  -447  -738  -1008  -1154  -1195  -1196  -1172  -1062  -811  -490  -262  -191  -210  -249  -297  -377  -486  -599  -715  -831  -925  -973  -952  -876  -799  -736  -639  -482  -313  -205  -173  -173  -172  -159  -133  -98  -81  -135  -292  -497  -649  -711  -719  -709  -685  -658  -663  -741  -891  -1046  -1136  -1156  -1141  -1112  -1062  -998  -974  -1038  -1162  -1270  -1291  -1203  -1049  -866  -630  -337  -62  109  133  2  -238  -514  -755  -908  -963  -961  -947  -935  -919  -888  -849  -814  -762  -654  -496  -350  -231  -99  -1  -152  -694  -1378  -1640  -1012  602  2848  4976  6174  6025  4736  2888  1010  -495  -1339  -1499  -1219  -812  -506  -362  -320  -334  -378  -412  -412  -380  -339  -306  -265  -205  -146  -108  -84  -66  -63  -89  -133  -165  -170  -164  -159  -136  -69  29  77  19  -74  -92  3  161  300  402  496  580  660  772  895  967  990  1056  1261  1580  1861  1991  1991  1932  1859  1812  1820  1860  1895  1924  1967  2018  2045  2019  1932  1814  1724  1701  1715  1653  1378  893  407  127  54  56  38  -4  -48  -98  -167  -241  -285  -309  -359  -461  -597  -733  -846  -917  -940  -922  -854  -714  -509  -308  -204  -236  -356  -504  -646  -759  -825  -848  -853  -862  -865  -809  -647  -425  -256  -179  -137  -80  -9  39  29  -60  -215  -419  -672  -917  -1026  -918  -646  -344  -119  -7  17  7  -7  -20  -27  -1  91  234  331  228  -169  -725  -1137  -1239  -1072  -747  -396  -136  -7  29  36  49  77  116  179  271  377  464  474  320  -36  -515  -940  -1163  -1147  -944  -677  -489  -430  -442  -468  -481  -461  -382  -245  -107  -48  -129  -373  -750  -1143  -1386  -1376  -1136  -809  -582  -518  -536  -529  -447  -318  -212  -162  -169  -255  -447  -717  -999  -1243  -1409  -1468  -1428  -1351  -1330  -1387  -1415  -1322  -1088  -566  536  2296  4343  5969  6381  5243  3054  705  -1098  -1979  -2003  -1619  -1258  -1087  -1052  -1010  -871  -624  -332  -109  -25  -49  -123  -212  -294  -342  -325  -236  -114  -26  -7  -41  -94  -143  -180  -198  -184  -133  -44  48  97  117  182  321  486  605  652  664  681  711  735  747  760  793  854  937  1022  1097  1195  1366  1590  1802  1972  2106  2193  2222  2210  2178  2137  2087  2023  1943  1859  1776  1654  1482  1312  1185  1096  1007  868  665  459  315  201  11  -309  -673  -939  -1069  -1098  -1064  -1012  -981  -990  -1026  -1059  -1067  -1053  -1027  -990  -926  -838  -734  -607  -471  -375  -336  -326  -349  -436  -573  -683  -723  -714  -691  -686  -740  -870  -993  -982  -845  -707  -618  -524  -403  -312  -311  -409  -554  -669  -714  -694  -619  -497  -357  -234  -164  -174  -263  -426  -684  -985  -1199  -1260  -1209  -1098  -918  -636  -320  -109  -39  -29  -19  -34  -114  -224  -296  -314  -322  -360  -427  -493  -532  -507  -384  -189  5  153  241  258  158  -99  -431  -673  -761  -747  -661  -501  -312  -179  -138  -173  -271  -398  -496  -547  -583  -646  -730  -796  -824  -838  -871  -952  -1061  -1144  -1168  -1133  -1046  -922  -780  -653  -579  -563  -587  -629  -673  -693  -676  -632  -585  -566  -633  -835  -1112  -1322  -1398  -1365  -1249  -1115  -1157  -1494  -1913  -1993  -1401  -54  1849  3864  5469  6228  5900  4582  2707  805  -723  -1675  -2001  -1805  -1286  -654  -139  96  107  63  78  198  416  684  934  1104  1190  1238  1289  1375  1516  1682  1786  1751  1604  1420  1197  911  626  438  371  388  445  508  558  584  589  586  605  669  764  845  907  989  1100  1212  1316  1420  1520  1599  1649  1660  1616  1539  1489  1521  1625  1752  1887  2024  2133  2210  2271  2290  2252  2192  2114  1940  1625  1243  910  674  513  388  235  -1  -286  -536  -707  -786  -765  -676  -579  -519  -528  -596  -663  -690  -688  -681  -681  -688  -710  -756  -817  -872  -917  -950  -945  -879  -781  -715  -700  -694  -679  -703  -783  -864  -907  -919  -920  -911  -888  -848  -790  -708  -607  -511  -449  -430  -432  -435  -454  -526  -645  -758  -830  -886  -932  -951  -925  -845  -737  -653  -618  -610  -594  -562  -534  -522  -513  -486  -442  -404  -390  -416  -490  -605  -723  -785  -777  -754  -755  -769  -781  -779  -729  -588  -381  -194  -60  47  110  92  20  -42  -73  -89  -101  -114  -150  -240  -368  -471  -512  -485  -392  -265  -161  -101  -70  -70  -151  -358  -628  -818  -859  -786  -673  -580  -530  -519  -534  -559  -594  -655  -743  -824  -871  -893  -907  -911  -893  -860  -835  -830  -840  -856  -864  -833  -733  -585  -451  -370  -343  -355  -393  -470  -598  -766  -922  -941  -763  -568  -572  -674  -503  337  2034  4257  6120  6720  5753  3635  1173  -852  -1904  -1865  -1209  -568  -185  -36  -61  -142  -181  -161  -85  29  127  152  74  -107  -328  -476  -477  -342  -156  -25  15  12  14  37  74  112  139  150  146  139  152  238  435  687  866  917  882  823  776  758  791  892  1030  1132  1148  1082  971  902  1018  1422  1979  2383  2470  2313  2084  1923  1867  1872  1901  1958  2036  2091  2060  1897  1638  1382  1186  1038  910  788  664  518  348  190  88  28  -26  -76  -133  -296  -662  -1128  -1461  -1543  -1397  -1083  -686  -340  -136  -62  -59  -99  -173  -253  -308  -344  -430  -646  -946  -1168  -1226  -1176  -1099  -993  -806  -554  -336  -212  -172  -183  -221  -269  -316  -369  -439  -520  -579  -595  -598  -627  -665  -657  -575  -455  -362  -334  -363  -440  -534  -600  -618  -611  -603  -597  -565  -479  -369  -299  -292  -312  -322  -318  -313  -335  -408  -508  -576  -580  -538  -501  -489  -468  -420  -373  -360  -383  -429  -480  -500  -413  -151  208  478  570  524  389  222  89  14  -41  -121  -224  -317  -373  -392  -385  -378  -407  -496  -619  -716  -765  -788  -805  -827  -849  -837  -767  -676  -620  -615  -633  -649  -654  -653  -652  -656  -666  -692  -753  -855  -947  -952  -870  -768  -673  -563  -446  -365  -341  -354  -373  -369  -314  -233  -263  -542  -942  -1120  -807  92  1543  3354  5069  5997  5696  4321  2364  364  -1170  -1971  -2136  -1928  -1521  -1028  -561  -211  -25  24  20  9  5  16  31  21  -12  -39  -40  -23  -2  18  63  145  236  284  276  237  188  138  113  143  238  378  507  581  604  610  629  671  727  794  884  1007  1135  1212  1228  1223  1260  1385  1596  1839  2031  2096  2039  1956  1912  1902  1903  1921  1983  2095  2215  2271  2186  1919  1554  1268  1152  1106  946  594  189  -74  -186  -277  -403  -505  -542  -536  -526  -532  -560  -595  -619  -645  -712  -828  -955  -1062  -1137  -1158  -1104  -1005  -906  -824  -763  -718  -675  -630  -597  -581  -557  -485  -372  -313  -374  -502  -603  -649  -661  -669  -685  -702  -713  -721  -731  -747  -769  -793  -793  -700  -458  -132  128  219  96  -249  -693  -1004  -1057  -883  -599  -349  -228  -260  -443  -723  -973  -1089  -1027  -788  -474  -249  -175  -181  -202  -230  -289  -386  -477  -497  -447  -391  -360  -339  -306  -253  -177  -115  -123  -179  -191  -120  -18  63  125  165  143  37  -130  -313  -460  -572  -691  -820  -912  -943  -934  -913  -892  -861  -805  -709  -586  -474  -399  -345  -289  -243  -246  -342  -537  -767  -936  -1009  -1021  -1014  -989  -923  -830  -749  -683  -599  -498  -423  -397  -412  -466  -546  -597  -577  -577  -684  -700  -215  1001  2785  4615  5787  5772  4562  2649  668  -854  -1604  -1627  -1282  -933  -715  -556  -386  -236  -139  -66  10  76  106  89  44  -5  -56  -106  -147  -183  -222  -246  -221  -135  -15  102  206  303  381  444  511  561  563  541  541  573  615  638  642  658  721  823  928  1031  1157  1293  1383  1405  1380  1338  1306  1322  1433  1642  1877  2045  2115  2120  2106  2097  2094  2098  2114  2133  2109  1962  1647  1237  856  553  298  57  -154  -280  -287  -195  -64  34  50  -45  -248  -481  -643  -706  -712  -722  -787  -937  -1130  -1258  -1214  -961  -611  -352  -264  -295  -393  -513  -601  -618  -552  -438  -385  -470  -630  -752  -799  -784  -736  -690  -652  -603  -539  -480  -436  -403  -375  -356  -351  -347  -322  -264  -193  -120  -48  -42  -184  -432  -634  -690  -622  -502  -390  -328  -318  -327  -315  -259  -172  -97  -68  -127  -306  -554  -750  -818  -734  -489  -172  22  -14  -220  -442  -565  -573  -518  -440  -359  -299  -262  -226  -170  -131  -166  -269  -360  -378  -317  -209  -96  -9  35  37  9  -28  -60  -75  -72  -74  -148  -344  -612  -829  -941  -974  -964  -938  -914  -887  -830  -732  -645  -642  -730  -851  -954  -1024  -1052  -1035  -969  -853  -712  -595  -534  -537  -592  -680  -770  -824  -817  -747  -653  -584  -560  -556  -548  -531  -514  -499  -484  -481  -531  -690  -970  -1268  -1240  -418  1252  3288  5116  6192  6056  4771  2863  838  -842  -1740  -1788  -1337  -782  -346  -100  -17  -23  -46  -62  -67  -72  -104  -165  -225  -268  -305  -351  -403  -436  -416  -321  -180  -56  25  95  182  285  377  444  496  544  582  609  629  643  664  717  798  875  935  1008  1113  1226  1326  1417  1501  1563  1592  1596  1588  1590  1609  1629  1629  1615  1623  1692  1829  2000  2135  2174  2151  2134  2100  1972  1735  1473  1299  1217  1115  909  637  401  219  32  -196  -429  -596  -653  -610  -519  -431  -377  -357  -365  -416  -521  -646  -727  -741  -719  -711  -788  -988  -1234  -1373  -1311  -1092  -831  -627  -520  -489  -489  -498  -527  -600  -698  -771  -799  -793  -759  -682  -559  -417  -296  -243  -267  -297  -255  -163  -86  -48  -35  -31  -48  -108  -218  -364  -514  -627  -680  -677  -605  -440  -223  -71  -72  -229  -452  -608  -636  -564  -458  -372  -310  -260  -246  -289  -361  -413  -433  -445  -465  -481  -474  -432  -349  -248  -178  -179  -254  -364  -439  -417  -282  -97  36  79  72  57  52  60  79  93  59  -72  -297  -542  -726  -778  -679  -506  -372  -322  -323  -345  -396  -491  -612  -715  -769  -791  -814  -838  -830  -790  -778  -833  -912  -950  -925  -854  -782  -736  -708  -690  -680  -660  -622  -589  -593  -636  -695  -746  -778  -782  -752  -713  -710  -803  -912  -648  378  2156  4269  6004  6538  5543  3482  1141  -735  -1607  -1529  -1071  -681  -452  -328  -238  -169  -144  -152  -167  -185  -203  -216  -217  -209  -203  -227  -304  -406  -446  -338  -87  189  369  429  428  416  398  354  278  191  130  133  220  365  478  486  449  487  632  859  1108  1287  1367  1404  1445  1494  1536  1561  1577  1581  1574  1555  1525  1498  1512  1615  1800  1987  2096  2130  2136  2124  2045  1862  1632  1476  1430  1406  1283  1013  619  182  -202  -505  -762  -979  -1130  -1207  -1233  -1247  -1262  -1230  -1088  -842  -582  -394  -311  -321  -396  -488  -549  -568  -577  -622  -749  -951  -1126  -1173  -1095  -960  -838  -768  -750  -760  -784  -813  -836  -827  -754  -616  -472  -385  -363  -381  -419  -462  -478  -439  -347  -244  -187  -240  -441  -720  -918  -930  -765  -531  -367  -338  -416  -530  -623  -690  -750  -773  -730  -664  -635  -647  -658  -601  -436  -203  10  169  317  476  591  577  379  35  -295  -477  -512  -468  -382  -267  -147  -50  20  68  88  87  80  31  -153  -496  -864  -1093  -1147  -1065  -885  -673  -528  -480  -487  -521  -582  -648  -673  -643  -594  -576  -622  -727  -860  -960  -965  -891  -814  -783  -783  -791  -796  -800  -804  -810  -818  -825  -831  -884  -1015  -1028  -561  516  1985  3454  4473  4713  4176  3119  1791  361  -944  -1768  -1882  -1469  -899  -443  -268  -341  -433  -420  -367  -334  -294  -206  -80  28  81  89  78  60  35  7  -17  -35  -50  -62  -54  -8  61  136  215  282  319  340  395  529  725  897  994  1048  1101  1182  1279  1321  1246  1106  1021  1060  1182  1299  1385  1481  1611  1750  1856  1915  1939  1942  1942  1949  1964  1976  1971  1941  1884  1817  1777  1785  1812  1743  1394  730  20  -407  -516  -497  -495  -524  -551  -583  -630  -670  -681  -690  -730  -757  -708  -609  -526  -487  -504  -579  -676  -755  -791  -791  -788  -832  -957  -1119  -1219  -1203  -1098  -934  -714  -479  -301  -203  -149  -106  -84  -131  -288  -509  -682  -772  -829  -863  -823  -694  -531  -398  -333  -336  -370  -372  -289  -134  29  154  226  230  123  -123  -443  -694  -795  -769  -673  -549  -425  -315  -213  -121  -57  -4  91  272  505  711  835  855  760  565  301  -4  -293  -469  -473  -310  -51  185  325  367  347  296  253  257  309  366  397  399  369  299  209  145  124  130  137  133  110  77  52  56  96  159  212  236  234  220  191  154  150  228  381  540  633  600  381  0]
